0.014018
0.003289
0.003114
0.003057
0.002854
0.002939
0.00304
0.003035
0.002831
0.017446
-0.007211
0.002299
0.002319
-0.002895
0.001972
0.002273
0.001213
0.001551
0.001326
0.023296
0.002333
0.001733
-0.002974
0.001042
0.001977
0.00096
0.00226
-0.002633
0.0019
0.002068
0.002012
-0.002426
0.000515
-0.003526
0.00195
0.001967
0.001129
0.002
-0.003602
0.00167
0.024046
0.01064
0.003022
0.001532
0.002111
-0.005009
0.001723
0.0019
-0.001278
-0.001208
0.001524
0.001894
0.017558
-0.001003
-0.003624
0.001994
0.001637
0.013538
-0.005158
0.010592
0.001382
0.001929
0.011233
0.002548
0.007726
5.7e-05
-0.002107
0.001875
0.001301
-0.006744
0.002052
0.031393
0.002583
-0.004667
0.002041
-0.009132
0.001988
-0.001864
0.002348
-0.001647
0.002459
0.000948
0.011689
0.008268
0.002532
-0.003178
0.002139
-0.002549
-0.001143
0.001981
-0.000722
0.011547
0.010238
-0.004065
0.001911
0.001329
-0.004309
0.001915
0.011434
-0.001498
0.001701
-0.003625
0.002415
-0.001236
-0.001806
0.00227
0.021481
0.001728
0.001499
-0.005514
0.002184
-0.00197
0.001782
-0.004217
0.014109
0.008543
-0.00054
0.001526
-0.004716
0.001621
-0.003501
0.01165
0.004875
-0.005724
-0.007374
-0.001897
-0.006137
-0.006517
0.00493
-0.01587
-0.012924
-0.012524
-0.014465
-0.010735
0.012656
-0.011358
-0.005082
-0.020925
-0.030975
-0.024395
-0.012836
-0.001443
-0.003499
-0.011983
-0.017253
-0.00839
-0.012375
-0.026461
-0.01238
-0.003788
-0.002811
0.010555
-0.000874
0.009358
0.004473
0.008678
0.050558
0.005198
0.009646
0.00565
0.014881
0.003655
0.012888
0.005626
0.020143
0.014172
0.014559
0.049633
-0.001398
0.008674
0.011189
0.019214
7.3e-05
0.01008
0.010363
0.016674
0.005192
0.015398
0.006733
0.001975
0.007401
0.011401
0.019841
-0.000494
0.01254
0.006915
0.004624
0.026114
0.010785
0.007537
0.005269
0.006791
0.020954
0.006921
0.028861
-0.002355
0.011724
0.012013
0.027019
0.013719
-0.004141
0.01282
-0.004215
0.026314
-0.004884
-0.002644
0.001161
0.017891
-0.003676
-0.005991
-0.004937
0.023816
-0.004816
-0.004633
-0.004435
-0.004011
0.01446
-0.006343
0.010886
-0.00405
0.006766
-0.000283
0.006828
-0.003387
-0.004062
0.01298
-0.002851
-0.000993
0.005404
0.011347
-0.006853
-0.004962
0.004503
0.011273
0.002298
-0.007522
-0.007871
0.019606
-0.000587
-0.004329
-0.004074
-0.003642
0.017015
-0.003481
-0.000406
-0.002962
0.000595
-0.003365
-0.003701
0.020084
-0.006101
-0.004391
-0.002073
-0.004934
0.016245
-0.008488
-0.006433
-0.005372
0.026465
-0.002208
0.005769
0.008655
-0.001121
0.011319
-0.005546
0.006774
-0.004329
-0.002107
-0.001826
0.006849
0.002849
-0.005606
-0.003577
0.015799
-0.003358
-0.019272
-0.006793
-0.003264
-0.006057
0.000526
0.00969
-0.005529
-0.030014
0.004528
-0.001339
-0.003613
0.006282
0.010077
-0.002679
-0.003421
0.020508
-0.003851
-0.003113
-0.001833
0.021635
-0.016441
-0.00546
0.007419
0.005085
-0.003473
-0.002124
0.004859
-0.005022
0.005101
0.010837
-0.006094
0.005829
0.007912
-0.002877
-0.005719
0.01606
-0.015138
-0.026088
0.011656
-0.030468
-0.0297
-0.029371
0.006288
-0.002462
-0.002375
0.016014
-0.002537
-0.004364
0.020742
-0.00307
-0.002478
0.020032
-0.002254
-0.003116
-0.003182
0.016672
-0.006084
0.008804
0.011104
-0.005054
0.003043
0.007575
-0.004378
-0.007034
0.023889
-0.002372
-0.007153
0.013075
-0.004576
-0.000153
0.020425
-0.004171
0.039233
-0.003078
0.005833
0.009151
-0.004199
-0.004704
0.008835
-0.00433
0.006751
0.001088
0.004693
-0.00315
0.01802
-0.007095
0.006566
0.009604
-0.004988
-0.003874
0.018788
-0.001921
0.007148
0.003705
-0.00805
0.017273
-0.003427
0.00427
0.011184
-0.003359
0.004717
0.007264
-0.002243
0.018556
-0.003832
-0.001776
0.025664
-0.00279
-0.00328
0.008325
-0.000443
-0.002787
0.017045
-0.004301
0.018783
-0.003393
-0.023625
0.008865
-0.034152
-0.010377
-0.048307
-0.004306
0.016631
-0.005348
-0.004949
0.02105
0.006995
0.008555
-0.006769
0.00764
0.008827
-0.001491
0.008723
0.003266
-0.003268
0.017838
-0.003107
0.018352
-0.003052
0.004593
0.009029
-0.003638
0.019562
-0.005036
-0.004717
0.012441
-0.002443
-0.002379
0.018139
0.008708
-0.001248
0.008642
0.009704
-0.005654
-0.002571
0.00886
0.000815
-0.004764
0.01808
0.011795
0.008326
-0.004003
0.018211
-0.001545
-0.00375
0.022065
-0.00133
0.015203
-0.004283
0.020513
-0.003698
-0.003488
0.022877
-0.004629
0.016878
-0.003322
0.019486
-0.006757
-0.007142
0.007592
0.004256
0.007071
0.003262
0.020315
-0.002861
0.007293
0.009656
-0.00281
0.018488
-0.000883
0.020667
-0.004668
-0.007129
-0.002009
0.004306
0.016468
-0.003998
0.019748
-0.003908
0.019458
-0.017569
-0.008662
-0.009778
0.013608
-0.018853
-0.003834
-0.014596
-0.096576
-0.088833
-0.10385
-0.086496
-0.066277
-0.041643
-0.034564
0.006715
0.005984
-0.003244
0.021526
-0.003929
0.022145
-0.020842
0.012568
-0.002317
0.022923
-0.002536
0.015058
-0.001929
0.018683
-0.002571
0.017934
-0.000895
0.01999
-0.003625
-0.004414
0.016757
0.021152
-0.002512
0.019746
-0.001794
-0.002847
0.016824
-0.00392
0.021435
-0.004195
0.022675
-0.00316
0.010852
-0.010357
0.011608
-0.012706
0.009909
-0.008145
0.014391
-0.015689
0.019262
-0.004621
0.02048
0.002908
0.013022
-0.000963
0.002344
-0.005954
0.011082
-0.008867
-0.014446
-0.003249
-0.022889
-0.099777
-0.054391
-0.008796
0.011873
-0.002457
0.016897
-0.003647
0.019899
0.003012
0.000447
0.000816
0.009893
-0.001593
0.013583
-0.001572
0.015841
0.023684
-0.004201
0.021509
-0.003715
0.021821
-0.01402
0.020957
0.00165
0.019169
-0.000805
0.020093
-0.010565
0.014611
0.0281
0.007465
0.011097
0.006635
0.009031
-0.002798
0.007129
-0.023121
-0.027416
-0.032984
0.009626
0.021027
-0.001705
0.017623
-0.016029
0.021728
-0.00737
0.009673
0.007352
0.01275
-0.001873
0.021387
0.007343
-0.053624
-0.039182
-0.032102
0.018867
0.008385
0.00732
0.004793
0.006701
0.009463
-0.010914
-0.027114
-0.033197
-0.022171
-0.002502
0.019542
-0.002087
0.005626
0.01803
0.009613
-0.002719
0.005851
0.005491
-0.002324
0.009022
0.006311
0.00327
0.025156
-0.015657
0.016245
-0.005163
0.014703
0.017486
-0.014187
0.018495
-0.003191
0.019526
0.01686
-0.003018
0.019393
-0.002695
0.002747
-0.010587
-0.03927
-0.016963
0.004585
0.009609
-0.003431
0.013869
0.007534
0.004184
0.020242
0.008012
0.007095
0.008659
-0.00365
0.01623
0.005668
0.010275
0.016268
-0.004355
0.015351
0.008678
0.010342
0.015126
-0.007328
0.020395
0.007079
0.011912
0.007119
-0.003055
0.019524
-0.004154
0.014174
0.006491
0.004894
0.017868
-0.015286
-0.03503
-0.016697
-0.003056
0.01575
0.009044
0.004964
0.00503
0.019214
-0.002297
0.016732
0.020263
-0.004651
0.018342
-0.014049
-0.035329
0.01614
0.007151
0.008622
0.017686
-0.004272
0.006559
0.004705
0.019624
0.019904
-0.005768
0.021479
0.014807
-0.001465
0.014038
0.011487
-0.002588
0.018954
0.021263
-0.00306
0.007725
-0.001214
0.015503
0.018184
-0.003066
0.021121
0.013625
-0.003826
0.018008
0.018909
0.007188
0.005767
0.006837
0.003293
0.016773
0.020622
-0.003976
0.017134
-0.003204
0.020941
0.015329
-0.005383
0.006604
0.015338
0.019942
-0.003778
0.00444
0.004145
0.018704
0.003889
-0.033016
-0.039266
0.015415
0.020088
0.006942
0.009091
0.009102
-0.003269
0.014675
0.006355
0.004824
0.007211
0.017017
-0.001347
0.009703
0.01735
-0.004367
0.020341
0.018684
0.002161
-0.004044
0.019609
-0.002374
0.020412
0.021719
0.008324
0.004444
0.015166
0.015195
-0.017891
0.017965
0.014807
-0.00282
0.02834
0.010914
0.018554
-0.00353
0.014711
0.003802
0.002958
0.008566
0.019239
-0.002573
0.017117
0.020865
0.01902
-0.025383
-0.028532
-0.025438
0.007327
0.000382
0.015145
0.020245
-0.003888
0.022238
0.016985
-0.002415
-0.032662
-0.023597
-0.024076
-0.04509
0.014471
0.018074
-0.00343
0.01741
0.019758
0.019025
-0.009487
0.014005
0.018853
0.018742
-0.004636
0.019019
0.021312
0.007135
0.011005
0.013342
0.007575
0.007553
-0.005121
-0.004737
0.021545
-0.002865
0.021024
0.020796
0.020971
-0.003278
0.016932
0.015452
0.018187
0.004044
0.02256
0.013705
0.020977
-0.000723
0.027998
0.010739
0.025607
-0.003231
-0.003828
0.009485
0.015572
0.006575
0.019662
0.013045
0.016317
0.018801
0.009824
0.009326
0.020404
0.019633
0.021322
0.005663
0.016342
0.010954
0.022151
-0.002747
0.022451
0.015269
0.019904
0.020676
-0.00202
0.01564
0.022547
0.020898
-0.003739
0.016051
0.019385
0.023007
0.008899
0.006846
0.012251
0.018226
0.042413
0.03767
0.051074
0.02717
0.009505
0.005848
0.019454
0.019993
0.023434
0.006671
0.002808
0.016305
0.019128
0.021854
0.01588
0.003461
0.011064
0.018675
0.015717
0.01961
0.007465
0.010858
0.017904
0.020458
0.017217
-0.001588
0.018435
0.01973
0.024238
0.01745
0.022548
-0.001334
0.012191
0.015366
0.018869
0.020412
-0.002241
0.017793
0.029446
0.017628
0.015115
0.020499
-0.005097
0.016076
0.015433
0.021614
0.021093
0.007664
0.001338
0.028917
0.009196
0.016347
0.020891
0.017906
-0.00393
0.01344
0.021239
0.014095
0.019904
-0.002965
0.014229
0.019187
0.02119
0.019189
0.015463
-0.018217
0.006021
0.022589
0.015688
0.024921
0.008758
0.015898
0.021555
0.009013
0.009263
0.014453
0.020375
0.019105
0.017825
0.007547
0.006275
0.020691
0.020173
0.015892
0.016314
0.025049
0.005388
0.010761
0.010107
0.017616
0.014799
0.018637
0.0176
0.007232
0.007877
0.019235
0.009941
0.021056
0.018792
0.019145
0.020015
0.009797
0.009065
0.013916
0.022559
0.003362
0.027047
0.020756
0.019091
-0.004565
0.016465
0.013689
0.017856
0.014661
0.021583
0.023698
0.021221
0.022938
-0.003675
0.012103
0.01509
0.020059
0.020039
0.01683
0.018411
0.020343
0.00841
0.00261
0.02817
0.022097
0.008144
0.014064
0.016271
0.019275
0.018349
0.019629
0.000577
0.014686
0.021219
0.02074
0.013837
0.021694
0.017699
0.017299
0.020626
0.019344
0.016198
0.021433
-0.002448
-0.005833
0.015339
0.034668
0.020742
0.006274
0.017155
0.014662
0.016803
0.019653
0.022846
0.022992
0.00957
0.004971
0.020807
0.018207
0.006254
0.016118
0.018978
0.018348
0.019088
0.015579
0.017468
0.018742
0.017505
0.01629
0.025608
-0.00246
0.015849
0.015481
0.012958
0.018642
0.019978
0.02108
0.016211
0.02105
0.020809
0.01257
0.020529
0.017959
0.017351
0.018672
0.020783
-0.001608
0.005843
0.027039
-0.004009
0.013724
0.016528
0.018519
0.011569
0.019819
0.018512
0.015182
0.021636
0.019502
0.020049
0.007593
0.024109
0.015224
0.017556
0.021475
0.013997
0.01818
0.020192
-0.004259
0.026497
0.020954
-0.002467
0.014634
0.029847
0.018807
0.012008
0.010728
0.017316
0.017737
0.021028
0.018707
0.016108
0.025188
0.018219
0.008517
0.015059
0.015834
0.017875
0.023035
0.016986
0.016094
0.020165
0.021904
0.019629
0.020308
0.009187
0.026402
-0.004134
0.039172
0.02332
-0.003294
0.008241
0.018522
0.014093
0.019127
0.020803
-0.003302
0.027502
0.036525
-0.002052
0.014623
0.018549
0.018464
0.017418
0.020243
0.020217
0.009842
0.022395
0.019467
0.010987
0.027353
0.020086
0.008985
0.023801
0.032496
-0.003774
0.016626
0.032024
-0.003043
0.015652
0.013342
0.016866
0.018278
0.032429
-0.000106
0.018714
0.008018
0.015726
0.017031
0.019189
0.019713
0.017794
0.021721
0.018833
0.021878
0.018745
0.007779
0.026584
0.018381
0.019598
0.015169
0.020991
0.018283
0.014959
0.017375
0.018764
0.012762
0.020142
0.017924
0.031073
0.009241
0.01528
0.033699
-0.007704
0.015091
0.007812
0.020117
0.017223
0.022488
0.015558
0.01585
0.020957
0.028325
0.017154
0.027423
0.015873
0.014022
0.020705
0.020941
0.026639
0.031077
0.018852
0.005998
0.018881
0.023835
0.019332
0.021492
0.020539
0.017655
0.016328
0.017119
0.01705
0.020151
0.029395
-0.002861
0.008803
0.025769
0.019201
0.021061
0.021867
0.01756
0.011714
0.019011
0.025224
0.019311
0.033324
0.020579
0.021338
0.024958
0.02121
0.024879
0.02104
0.01923
0.015166
0.037375
0.013392
0.018903
0.018157
0.007446
0.020065
0.021001
0.02198
0.02116
0.0132
0.02981
0.017446
0.006864
0.01523
0.038634
0.008342
0.017396
0.022324
0.016437
0.021291
0.013048
0.039245
0.018319
0.009619
0.010511
0.019684
0.01892
0.01886
0.015784
0.0297
0.030301
0.010211
0.017965
0.018787
0.020822
0.020242
0.015932
0.011311
0.014813
0.027185
0.005911
0.027492
0.018864
0.020638
0.018778
0.019092
0.022928
0.014551
0.025131
0.01895
0.021139
0.017201
0.015764
0.029978
0.006127
0.030064
0.029075
0.017622
0.017514
0.018091
0.014557
0.010458
0.017586
0.030021
0.027294
0.019666
0.011585
0.015901
0.017786
0.012348
0.017896
0.027739
0.012976
0.017991
0.019632
0.020289
0.016
0.053695
0.015251
0.00876
0.017152
0.018187
0.02244
0.025086
0.030414
0.019277
0.018455
0.021455
0.017446
0.004689
0.020963
0.025991
0.024758
0.01639
0.019079
0.013207
0.017636
0.015828
0.020351
0.028841
0.009556
0.0135
0.019805
0.022826
0.038551
0.020246
0.017105
0.016146
0.018044
0.019594
0.026915
0.02327
0.014128
0.021108
0.021691
0.020383
0.016944
0.027277
0.003531
0.021491
0.016533
0.02336
0.020247
0.020151
0.021676
0.021452
0.017462
0.017263
0.024328
0.016243
0.018028
0.022539
0.019799
0.015973
0.038553
0.022084
0.020436
0.016679
0.016381
0.021569
0.030507
0.014753
0.017869
0.024374
0.021871
0.027238
0.014971
0.015282
0.019055
0.021571
0.02711
0.017038
0.013491
0.019013
0.022174
0.026981
0.018914
0.015414
0.021293
0.02276
0.026846
0.01968
0.017849
0.014995
0.022867
0.030897
0.017887
0.017042
0.031987
0.020156
0.021644
0.016611
0.016066
0.019635
0.022947
0.017551
0.024568
0.018564
0.027742
0.012905
0.018688
0.01688
0.017666
0.022268
0.015558
0.016319
0.018254
0.01704
0.025722
0.011999
-0.004691
-0.007196
0.012887
0.014006
0.016878
0.012192
0.02589
0.023139
0.015515
0.015887
0.014758
0.013745
0.026493
0.017137
-0.148639
-0.209345
-0.011486
0.015948
0.02045
0.014391
0.020095
0.021287
0.013822
0.018653
0.017397
0.018423
0.01998
0.04467
0.02045
0.014576
0.015628
0.012444
0.018965
0.025059
0.017383
0.018602
0.028751
0.016621
0.022436
0.015326
0.01561
0.019043
0.016745
0.01834
0.01693
0.025234
0.016485
0.018087
0.013058
0.03681
0.016696
0.017714
0.014966
0.016487
0.017616
0.016022
0.023537
0.015286
0.017137
0.019134
0.021738
0.013363
0.016115
0.015695
0.026311
0.01593
0.013327
0.013767
0.022742
0.0174
0.038569
0.014426
0.018886
0.018988
0.017381
0.021861
0.016213
0.017666
0.017105
0.025565
0.02179
0.032205
0.01743
0.014932
0.017308
0.006729
0.022326
0.016831
0.019638
0.013013
0.018518
0.021453
0.024765
0.021517
0.015024
0.01752
0.02127
0.026441
0.012274
0.030762
0.017471
0.016437
0.014075
0.028072
0.014306
0.016888
0.015607
0.023469
0.017261
0.013691
0.026321
0.015123
0.017528
0.021729
0.017556
0.025393
0.015528
0.015896
0.012728
0.017255
0.02585
0.019175
0.016056
0.022517
0.014081
0.019143
0.021376
0.016248
0.017211
0.02333
0.018421
0.018021
0.017642
0.016705
0.016608
0.019675
0.014803
0.018031
0.023379
0.017356
0.021767
0.02213
0.017432
0.017174
0.023085
0.015007
0.016586
0.021968
0.01812
0.014433
0.022577
0.016436
0.015869
0.02171
0.016174
0.019177
0.026207
0.017558
0.018504
0.023073
0.019481
0.019791
0.021005
0.018475
0.023418
0.022015
0.012039
0.01861
0.020616
0.019719
0.017857
0.019449
0.017824
0.01936
0.028425
0.015087
0.015497
0.021078
0.015681
0.014621
0.022006
0.017112
0.019675
0.01804
0.013666
0.017589
0.026232
0.01715
0.020418
0.025516
0.018439
0.017083
0.014348
0.019026
0.015827
0.021383
0.018617
0.016896
0.022388
0.013513
0.017751
0.017169
0.018206
0.017216
0.02006
0.023311
0.028515
0.006654
0.019526
0.022482
0.014226
0.015648
0.039662
0.018474
0.024578
0.017962
0.0207
0.021889
0.017512
0.017093
0.01681
0.018822
0.019554
0.02102
0.017071
0.017703
0.019577
0.018787
0.014268
0.023263
0.019688
0.016129
0.01877
0.018158
0.016978
0.016072
0.016488
0.022283
0.0149
0.014947
0.022256
0.014615
0.019875
0.014931
0.016132
0.020987
0.023974
0.017777
0.01862
0.013006
0.017002
0.018089
0.020311
0.019309
0.016995
0.021152
0.01407
0.01725
0.023977
0.019006
0.013688
0.021727
0.017437
0.027873
0.015797
0.015857
0.016907
0.018395
0.015025
0.018145
0.016863
0.017887
0.015439
0.013629
0.021177
0.016858
0.011159
0.028892
0.013692
0.017253
0.018099
0.015549
0.019149
0.021874
0.013163
0.003646
0.018098
0.016638
0.01594
0.020988
0.01742
0.027641
0.01743
0.019727
0.016966
0.004166
0.020038
0.019011
0.030298
0.018959
0.025395
0.017785
0.020078
0.016899
0.036114
0.012771
0.015255
0.023862
0.017339
0.021573
0.01943
0.015132
0.019199
0.016579
0.02706
0.012229
0.025357
0.016285
0.016979
0.019892
0.019891
0.02108
0.020497
0.019546
0.014185
0.020041
0.021091
0.026017
0.01918
0.019004
0.018359
0.012349
0.028519
0.016885
0.014929
0.017611
0.015663
0.03277
0.011137
0.018703
0.01957
0.011255
0.001469
0.018684
0.027126
0.011762
0.014515
0.016014
0.020849
0.016494
0.011773
0.029804
0.015769
0.021243
0.016644
0.011929
0.017717
0.017507
0.021435
0.011346
0.017947
0.017661
0.01347
0.015957
0.011655
0.013485
0.015015
0.014594
0.011003
0.013842
0.017838
0.004697
0.012355
0.01975
0.003947
0.0189
0.021602
0.016578
0.018816
0.011722
0.016466
0.020396
0.021092
0.012234
0.012657
0.014704
0.011936
0.017201
0.019384
0.012166
0.016797
0.01484
0.01619
0.007566
0.019888
0.009433
0.015412
0.008797
0.015363
0.005213
0.019546
0.013367
0.025138
0.016675
0.016168
0.01815
0.015186
0.020338
0.020226
0.010401
0.014791
0.02074
0.014022
0.014016
0.017266
0.018615
0.02331
0.013614
0.022387
0.014743
0.012078
0.011587
0.021932
0.017923
0.016957
0.013565
0.014765
0.01039
0.013078
0.014525
0.01509
0.016428
0.023788
0.022004
0.013215
0.017864
0.008574
0.019091
0.013101
0.013582
0.01826
0.018479
0.00946
0.018701
0.020135
0.017085
0.00211
0.013483
0.009603
0.020722
0.019841
0.002629
0.020589
0.017056
0.021836
0.01044
0.020599
0.015358
0.016298
0.01639
0.020273
0.017728
0.015001
0.0111
0.02161
0.019083
0.015078
0.023361
0.020531
0.014913
0.008322
0.014693
0.018903
0.002534
0.01204
0.026025
0.01647
0.011434
0.023318
0.015519
0.021494
0.0146
0.02115
0.021388
0.019345
0.011431
0.01385
0.011607
0.010474
0.003946
0.019105
0.019235
0.018704
0.017606
0.016962
0.014758
0.022761
0.016379
0.006835
0.006219
0.013111
0.019301
0.018763
0.016566
0.008992
0.015681
0.024534
0.016286
0.023917
0.013597
0.023651
0.017496
0.00293
0.016672
0.020435
0.018337
0.014966
0.018076
0.018792
0.015973
0.019933
0.013372
0.018046
0.019676
0.019383
0.027403
0.00964
0.014668
0.011594
0.010285
0.015869
0.015872
0.013634
0.014501
0.019355
0.014165
0.017287
0.023739
0.011262
0.012032
0.016536
0.016889
0.014174
0.009069
0.012265
0.013185
0.012783
0.01481
0.019796
0.023885
0.01775
0.020335
0.020544
0.014198
0.008382
0.015858
0.017371
0.011977
0.027702
0.015128
0.020223
0.0222
0.00421
0.014686
0.006067
0.016831
0.023179
0.016375
0.019609
0.014356
0.020119
0.013804
0.020419
0.018011
0.024136
0.020281
0.01865
0.017761
0.023776
0.016177
0.022096
0.019985
0.025496
0.015634
0.022023
0.014892
0.018723
0.029603
0.01746
0.01645
0.026854
0.020544
0.016741
0.020012
0.017852
0.025677
0.018441
0.018773
0.014548
0.013369
0.017093
-0.016267
0.016808
0.019571
0.016504
-0.012917
-0.04999
0.018359
0.018438
0.017422
0.008646
-0.045604
-0.027312
0.015228
0.018835
0.019676
0.011317
0.013208
0.008338
0.020148
0.014169
0.01074
0.013829
0.027844
-0.008738
0.011472
0.006532
0.017778
0.018779
0.018417
0.023938
0.020119
0.019729
0.022542
0.017002
0.019019
0.020547
0.02509
0.020775
0.015898
0.018146
0.016876
0.017934
0.019255
0.015754
0.017084
0.018843
0.013684
0.024356
0.019119
0.014794
0.016793
0.020132
0.017689
0.016574
0.020455
0.019427
0.019245
0.022033
0.015812
0.018928
0.021123
0.0183
0.016297
0.022819
0.019823
0.020217
0.019405
0.021701
0.022794
0.02537
0.016176
0.020488
0.014527
0.020394
0.015635
0.020499
0.016493
0.01984
0.014318
0.023443
0.027365
0.010018
0.022519
0.019165
0.020663
0.013995
0.022693
0.017981
0.020516
0.019323
0.020442
0.01539
0.015853
0.017293
0.016615
0.017754
0.019838
0.016455
0.020181
0.0031
0.020033
0.014542
0.012827
0.019833
0.007909
0.021382
0.014638
0.010088
0.013323
0.015509
0.008093
0.014091
0.01559
0.018553
0.01589
0.018351
0.0222
0.016826
0.024842
0.017644
0.019522
0.021862
0.020199
0.017955
0.021832
0.017202
0.022714
0.01832
0.024323
0.016054
0.017197
0.016972
0.019276
0.019034
0.024182
0.016833
0.020014
0.026915
0.015381
0.01697
0.022761
0.013462
0.021681
0.019502
0.040531
0.003922
0.002589
-0.195457
-0.092523
0.016987
0.013804
0.00329
0.020045
0.012111
0.018861
0.01987
0.013343
0.016288
0.01861
0.02174
0.012354
0.020783
0.010207
-0.128437
-0.266803
0.018226
-0.000503
0.011543
-0.020071
0.01186
0.011171
0.014418
0.017115
0.022165
0.017308
0.019981
0.016248
0.016951
-0.152399
-0.056532
0.01657
0.016559
0.024703
0.01329
0.016458
0.014625
0.023296
0.017687
0.023425
0.014179
0.020403
0.01465
0.025479
0.015395
0.023977
0.018439
0.017085
-0.036417
-0.022506
-0.017713
-0.010263
0.009294
0.004649
0.021102
0.023529
0.028207
0.007741
0.018927
0.006958
0.016474
0.021345
0.018641
0.016199
0.020989
0.015138
0.02036
0.025385
0.015622
0.027457
0.02044
0.020319
0.01943
0.020811
0.019693
0.020079
0.019201
0.024229
0.028494
0.016074
0.020704
0.016958
0.022433
0.021094
0.021955
0.018582
0.023586
0.021334
0.020859
0.01717
0.025029
0.016322
0.022168
0.016144
0.022534
0.016831
0.020789
0.016932
0.020235
0.02373
0.018394
0.018342
0.020818
0.018685
0.024286
0.016604
0.02015
0.017194
0.019657
0.021075
0.020834
0.016794
0.022117
-0.001884
0.016826
0.018589
0.022535
0.013649
0.019927
0.0172
0.01785
0.024504
0.01537
0.024203
-0.00232
0.019105
0.020073
0.021934
0.01798
0.019782
0.019118
0.021291
0.016435
0.04151
0.014984
0.015721
0.020208
0.019687
0.01541
0.022778
0.022511
0.03416
0.01635
0.020051
0.021612
0.020491
0.016736
0.021019
0.027681
0.020883
0.016399
0.022575
0.002168
0.018958
0.023276
0.024416
0.031842
0.015869
0.050595
0.060154
0.019262
0.012341
0.025013
0.020593
0.021091
0.016491
0.0227
0.023244
0.023789
0.023875
0.022711
0.022433
0.017797
0.016813
0.025497
0.025007
0.0215
0.022421
0.021541
0.019293
0.031964
0.016594
0.018274
0.030557
0.012886
0.016242
0.021378
0.02343
0.02344
0.02191
0.020656
0.029722
0.017946
0.025042
0.017188
0.023416
0.023681
0.01869
0.023386
0.017324
0.020172
0.023158
0.023098
0.021834
0.02228
0.022904
0.013296
0.017756
0.019359
0.023823
0.022325
0.016964
0.019497
0.016117
0.031106
0.014412
0.022646
0.022746
0.02392
0.021292
0.02218
0.020534
0.019546
0.019055
0.03295
0.020815
0.018723
0.021466
0.019287
0.02291
0.019829
0.019678
0.019262
0.018931
0.017169
0.030196
0.022786
0.019356
0.018198
0.0172
0.019796
0.017307
0.020097
0.021729
0.020629
0.027
0.018176
0.025232
0.020701
0.018985
0.019121
0.016383
0.021281
0.023713
0.021171
0.022165
0.017018
0.023407
0.022187
0.023242
0.023169
0.020693
0.018838
0.022261
0.023169
0.018362
0.015294
0.02064
0.023451
0.019799
0.024
0.022224
0.021301
0.022367
0.02138
0.021806
0.018041
0.022759
0.020245
0.017347
0.022049
0.018081
0.018023
0.021239
0.019546
0.015523
0.029918
0.014413
0.020468
0.0223
0.019493
0.023943
0.016093
0.020391
0.024188
0.021314
0.016275
0.022929
0.022273
0.020832
0.019821
0.018865
0.019151
0.014078
0.007352
0.021966
0.011863
0.020408
0.022298
0.022389
0.0227
0.020448
0.022262
0.021214
0.020367
0.01848
0.020183
0.019511
0.023908
0.017323
0.019927
0.020274
0.018709
0.019342
0.019344
0.03194
0.017728
0.023575
0.02222
0.019289
0.022893
0.021729
