sg-0.003014
-0.000553
-0.000468
-0.00039
-0.000277
-0.000233
-0.000202
-0.000143
6.1e-05
-0.003613
0.010061
0.000368
0.000405
0.005658
0.000749
0.000556
0.001634
0.001305
0.001455
-0.001732
0.001174
0.00151
0.00616
0.002201
0.00126
0.002277
0.001247
0.00608
0.001577
0.001496
0.001564
0.005972
0.003283
0.007264
0.00201
0.001957
0.002729
0.002137
0.007745
0.002608
-0.002722
0.00019
0.002093
0.003097
0.002446
0.009821
0.002954
0.002963
0.006003
0.00602
0.003534
0.003068
-0.000968
0.006406
0.008853
0.003298
0.003724
0.000535
0.011041
0.001444
0.00427
0.003684
0.005207
0.003599
0.002795
0.006492
0.008107
0.004296
0.00481
0.012825
0.004356
-0.002185
0.004362
0.011123
0.004472
0.015951
0.004636
0.008647
0.004456
0.008883
0.004639
0.006036
0.005306
0.005571
0.005025
0.010483
0.00522
0.009776
0.008961
0.005585
0.008726
0.006153
0.003568
0.011937
0.006039
0.006567
0.012406
0.005942
0.004223
0.011005
0.006555
0.012133
0.006144
0.009579
0.01026
0.006424
0.006518
0.007452
0.007402
0.014469
0.006693
0.012788
0.007392
0.013217
0.004401
0.007351
0.009633
0.0079
0.013833
0.007691
0.013224
0.007649
0.010719
0.015669
0.017226
0.011641
0.016151
0.023677
0.016487
0.026406
0.023268
0.022778
0.024971
0.020941
0.01729
0.02289
0.015801
0.031539
0.04158
0.035351
0.0236
0.021288
0.020872
0.022951
0.028224
0.019541
0.023994
0.03811
0.025325
0.015353
0.014442
0.009458
0.012889
0.013121
0.009366
0.013021
0.002002
0.009451
0.011747
0.01304
0.010805
0.012059
0.00927
0.015362
0.008336
0.01026
0.010593
-0.000718
0.017976
0.014345
0.008755
0.011563
0.014885
0.012645
0.011888
0.012954
0.013342
0.008101
0.015575
0.018182
0.012432
0.012041
0.009268
0.014588
0.013833
0.01641
0.011615
0.011605
0.014751
0.012836
0.014351
0.015148
0.012973
0.010929
0.009452
0.017238
0.01452
0.013256
0.010475
0.01509
0.01894
0.012434
0.01932
0.009611
0.020766
0.018514
0.014019
0.015106
0.019282
0.020805
0.02057
0.010696
0.020728
0.019753
0.019792
0.019905
0.011319
0.022864
0.014287
0.020169
0.017693
0.017233
0.015591
0.020316
0.020559
0.017059
0.019546
0.017613
0.017927
0.015743
0.023416
0.021822
0.019686
0.017083
0.015219
0.024775
0.025664
0.015986
0.018626
0.021699
0.02151
0.021285
0.015793
0.021289
0.01825
0.021202
0.018959
0.021521
0.021821
0.015835
0.023849
0.022145
0.020583
0.023096
0.016725
0.026584
0.02521
0.024218
0.01084
0.021678
0.02097
0.020205
0.019739
0.014658
0.02423
0.023034
0.023961
0.021271
0.021716
0.021036
0.022699
0.026444
0.023245
0.018449
0.023407
0.039279
0.043186
0.023499
0.025986
0.02759
0.0213
0.025875
0.050552
0.029912
0.022411
0.024034
0.022119
0.021318
0.023736
0.024052
0.018138
0.024188
0.024164
0.023502
0.018031
0.037249
0.026829
0.021783
0.022233
0.024971
0.023955
0.022441
0.026697
0.022913
0.021593
0.027811
0.023259
0.023441
0.024927
0.027619
0.021275
0.037998
0.048405
0.0278
0.053172
0.051849
0.059782
0.026187
0.025034
0.02546
0.021276
0.025619
0.027968
0.020235
0.026671
0.025752
0.020345
0.025759
0.026453
0.026705
0.022145
0.029244
0.023164
0.023015
0.028055
0.028154
0.024858
0.028228
0.029903
0.02256
0.026723
0.031159
0.024965
0.028711
0.024522
0.022907
0.029359
0.016957
0.027618
0.025844
0.025964
0.029288
0.0291
0.025545
0.029335
0.028175
0.033271
0.026237
0.029262
0.023956
0.032763
0.026971
0.026246
0.031325
0.029701
0.023878
0.027697
0.026956
0.027861
0.033664
0.024034
0.029572
0.029351
0.025068
0.029402
0.02957
0.029324
0.02831
0.026147
0.030325
0.028689
0.021907
0.029565
0.030676
0.0267
0.032924
0.030357
0.025432
0.031295
0.025839
0.029991
0.060147
0.028677
0.061638
0.05529
0.075541
0.032053
0.025279
0.032828
0.03458
0.024553
0.029209
0.028552
0.035347
0.028609
0.028787
0.030504
0.028759
0.031078
0.031405
0.026352
0.031847
0.026189
0.032353
0.031296
0.030904
0.032975
0.026725
0.034757
0.034279
0.030762
0.0313
0.032145
0.027812
0.028765
0.040032
0.028864
0.030022
0.035384
0.032247
0.029846
0.034501
0.034593
0.026821
0.025594
0.031607
0.033502
0.02972
0.032898
0.034029
0.0267
0.033037
0.029737
0.035357
0.028111
0.0353
0.034289
0.028006
0.036537
0.030585
0.03442
0.0308
0.037657
0.038474
0.031693
0.03322
0.033249
0.034229
0.028846
0.035102
0.031407
0.032692
0.034937
0.030544
0.033841
0.029799
0.03702
0.039628
0.034481
0.033992
0.030407
0.036872
0.028954
0.036083
0.030585
0.050956
0.049561
0.052699
0.038526
0.052738
0.036726
0.065425
0.130386
0.135876
0.136733
0.137373
0.099436
0.093255
0.068275
0.035123
0.033166
0.037489
0.030149
0.03809
0.029824
0.05509
0.033677
0.03622
0.031593
0.037105
0.033383
0.036906
0.033538
0.037692
0.03357
0.036355
0.032606
0.038341
0.039517
0.033274
0.032122
0.038443
0.032961
0.037146
0.039117
0.033021
0.040019
0.032118
0.039892
0.030971
0.039196
0.038267
0.046162
0.043094
0.048457
0.043011
0.044784
0.035058
0.052607
0.034243
0.041098
0.03463
0.036746
0.037345
0.038472
0.051749
0.043115
0.042657
0.045635
0.065527
0.040596
0.077864
0.14532
0.101524
0.047265
0.044212
0.040563
0.034784
0.042236
0.034155
0.042621
0.045825
0.043359
0.03802
0.040209
0.038335
0.039714
0.036848
0.03385
0.04294
0.034432
0.041671
0.034729
0.055894
0.036253
0.041229
0.03682
0.040396
0.03685
0.050093
0.038621
0.033301
0.040478
0.037983
0.040123
0.039299
0.042884
0.040688
0.067947
0.082946
0.080468
0.040468
0.035418
0.042055
0.038681
0.057036
0.03721
0.046865
0.040058
0.040321
0.041967
0.042166
0.037065
0.051919
0.09398
0.095135
0.072743
0.038613
0.041676
0.043272
0.043168
0.044773
0.040253
0.058251
0.077613
0.080363
0.082363
0.044532
0.039351
0.044501
0.042545
0.040614
0.041948
0.053281
0.04256
0.046397
0.044843
0.047753
0.043771
0.044112
0.038453
0.059211
0.043713
0.047928
0.040902
0.04327
0.05679
0.041502
0.046007
0.040972
0.044415
0.046128
0.041588
0.046486
0.05461
0.074523
0.091365
0.069505
0.045983
0.043518
0.04739
0.04374
0.0452
0.045349
0.041237
0.044419
0.048225
0.050018
0.048431
0.04671
0.046187
0.044355
0.042838
0.048926
0.047955
0.044623
0.043628
0.043434
0.05201
0.043316
0.045721
0.043612
0.055836
0.048388
0.043275
0.049289
0.045163
0.047116
0.046814
0.043104
0.078556
0.087938
0.075299
0.04913
0.044391
0.046144
0.047749
0.057949
0.044557
0.048692
0.044081
0.044126
0.051988
0.044988
0.061581
0.095065
0.047592
0.048058
0.046692
0.045512
0.051015
0.047804
0.048185
0.045578
0.044191
0.052955
0.044476
0.045997
0.050293
0.051014
0.05226
0.050807
0.045888
0.045298
0.050964
0.049107
0.054425
0.046783
0.047033
0.051333
0.045566
0.048568
0.052156
0.046372
0.046917
0.049608
0.052019
0.050601
0.050683
0.046524
0.045543
0.052864
0.047609
0.051894
0.047699
0.047665
0.055186
0.059918
0.051976
0.046904
0.053263
0.053784
0.050707
0.047665
0.062702
0.100156
0.089321
0.048719
0.046548
0.051513
0.049715
0.059067
0.053627
0.050113
0.052073
0.051261
0.060517
0.050177
0.053394
0.059174
0.049028
0.054971
0.047777
0.049452
0.055073
0.064998
0.04964
0.05389
0.048435
0.048016
0.052066
0.053021
0.05066
0.053694
0.069974
0.051218
0.051454
0.055695
0.04717
0.051612
0.049987
0.055532
0.051202
0.057272
0.061227
0.053696
0.049893
0.054839
0.050602
0.050196
0.051411
0.078747
0.095378
0.095998
0.054341
0.063041
0.051575
0.050741
0.056913
0.050386
0.051784
0.064557
0.097366
0.093767
0.091972
0.099762
0.056638
0.051913
0.057724
0.051701
0.05253
0.051856
0.064525
0.055319
0.052853
0.052487
0.058597
0.051979
0.052014
0.055073
0.053795
0.056258
0.065013
0.055447
0.068076
0.076092
0.051352
0.058449
0.052941
0.051549
0.052421
0.058793
0.056271
0.054286
0.05444
0.057309
0.052368
0.05495
0.053357
0.057603
0.051523
0.059206
0.051748
0.059352
0.060807
0.056503
0.054547
0.056023
0.054171
0.057227
0.057246
0.055599
0.055696
0.057421
0.054005
0.054425
0.053891
0.05881
0.055499
0.060842
0.053425
0.060002
0.053995
0.055867
0.056581
0.054717
0.059977
0.055505
0.056674
0.055374
0.061681
0.057065
0.055096
0.055743
0.057968
0.058932
0.060187
0.055883
0.050527
0.051304
0.047596
0.054112
0.057944
0.059873
0.05638
0.059039
0.054785
0.059623
0.061812
0.056982
0.057459
0.056083
0.058067
0.064108
0.058707
0.057972
0.057777
0.057148
0.060383
0.059585
0.058017
0.057614
0.060525
0.062296
0.057447
0.05662
0.05645
0.059794
0.056991
0.062963
0.062488
0.059034
0.058546
0.057819
0.063567
0.057894
0.05549
0.060186
0.063209
0.058422
0.065337
0.060466
0.05987
0.05788
0.058419
0.062245
0.06651
0.057834
0.061007
0.060108
0.058387
0.062596
0.066066
0.0615
0.058966
0.06542
0.059362
0.065833
0.06111
0.059305
0.058472
0.060611
0.065486
0.080251
0.063783
0.059563
0.063131
0.05889
0.063314
0.06293
0.06207
0.063035
0.064435
0.062176
0.060865
0.061634
0.061312
0.064579
0.067519
0.061155
0.061265
0.062732
0.063258
0.059893
0.064905
0.064365
0.066786
0.061341
0.065976
0.063137
0.062185
0.065068
0.065155
0.06277
0.068191
0.061624
0.062928
0.061339
0.062152
0.064333
0.065995
0.064402
0.064606
0.068659
0.060523
0.062305
0.063379
0.070277
0.063614
0.068526
0.063756
0.064626
0.06203
0.061808
0.062026
0.062088
0.070491
0.069272
0.064731
0.063875
0.063403
0.063816
0.06639
0.063504
0.066968
0.070113
0.061953
0.063277
0.06745
0.066315
0.065683
0.064575
0.067436
0.065694
0.068678
0.065936
0.064047
0.064055
0.066338
0.064835
0.067573
0.065138
0.064703
0.066864
0.066896
0.065147
0.070938
0.075427
0.066126
0.062799
0.064872
0.069923
0.066305
0.067811
0.068976
0.065865
0.065672
0.064377
0.068907
0.069831
0.069274
0.067605
0.072031
0.067834
0.067566
0.067989
0.06772
0.068022
0.068113
0.069569
0.068793
0.067308
0.066546
0.073047
0.068229
0.067769
0.071288
0.067788
0.067529
0.06676
0.06772
0.067903
0.068177
0.071772
0.067089
0.069302
0.067885
0.069018
0.068368
0.073404
0.070951
0.069267
0.074332
0.070702
0.068399
0.069633
0.071669
0.069779
0.072895
0.070198
0.067503
0.069652
0.068004
0.072453
0.06764
0.074563
0.0705
0.069356
0.071512
0.070668
0.069856
0.076895
0.070166
0.069535
0.075673
0.07173
0.06708
0.070569
0.071761
0.075411
0.070611
0.071579
0.069905
0.071431
0.071591
0.072288
0.070233
0.07371
0.071908
0.072174
0.071507
0.069005
0.073995
0.072367
0.07144
0.07007
0.070878
0.071225
0.073583
0.071419
0.078339
0.067598
0.070601
0.076842
0.074979
0.072537
0.077497
0.071974
0.071636
0.078098
0.069881
0.067905
0.077631
0.076619
0.072633
0.071839
0.074001
0.071782
0.073074
0.07564
0.075822
0.072993
0.074462
0.071146
0.072533
0.076209
0.074083
0.070476
0.079416
0.074526
0.071116
0.078994
0.074042
0.077843
0.074604
0.073555
0.070414
0.078898
0.073923
0.078655
0.077901
0.07557
0.074456
0.073977
0.074243
0.07421
0.078967
0.073051
0.075971
0.077373
0.074309
0.075207
0.074866
0.079331
0.074361
0.07433
0.076856
0.076777
0.07618
0.080649
0.075159
0.077614
0.073075
0.078566
0.07703
0.072831
0.085188
0.077582
0.078963
0.075766
0.076935
0.074418
0.080652
0.077201
0.075841
0.073837
0.077058
0.074499
0.080952
0.080595
0.075706
0.076112
0.074857
0.075225
0.077058
0.083834
0.077461
0.074973
0.077547
0.075627
0.076718
0.080202
0.076909
0.077909
0.079211
0.077232
0.075116
0.083852
0.083864
0.076333
0.079292
0.077582
0.078168
0.077834
0.082354
0.079377
0.076881
0.07845
0.074706
0.078544
0.079306
0.077513
0.078957
0.07803
0.07775
0.078678
0.084479
0.075314
0.083991
0.079029
0.079712
0.082293
0.07988
0.081683
0.078052
0.079439
0.081066
0.077437
0.080243
0.085104
0.080506
0.074961
0.082414
0.082015
0.079541
0.0849
0.080211
0.084062
0.075601
0.081749
0.08315
0.089437
0.082094
0.081571
0.081448
0.081377
0.078456
0.083072
0.082288
0.082715
0.080861
0.081442
0.080903
0.084775
0.085406
0.082825
0.080767
0.085814
0.080271
0.083898
0.081896
0.083111
0.081783
0.08068
0.084137
0.084006
0.081424
0.081842
0.084715
0.08476
0.079852
0.088415
0.0788
0.079453
0.084165
0.083394
0.082814
0.087536
0.085101
0.083931
0.080742
0.081555
0.084449
0.089221
0.08531
0.083842
0.084702
0.08456
0.082877
0.089606
0.084579
0.083379
0.083295
0.0842
0.076091
0.087436
0.086883
0.085547
0.085913
0.082371
0.085074
0.081789
0.084472
0.085546
0.083236
0.086702
0.091404
0.08464
0.083971
0.084946
0.085928
0.084544
0.088775
0.086194
0.088047
0.085063
0.083644
0.087797
0.091101
0.085909
0.084202
0.080252
0.085342
0.086179
0.090369
0.086641
0.085319
0.084616
0.085525
0.091673
0.085023
0.085235
0.085862
0.087366
0.085931
0.094938
0.085471
0.088419
0.084775
0.085743
0.087051
0.08936
0.086407
0.087646
0.088097
0.086537
0.091037
0.088466
0.085902
0.087268
0.088931
0.083202
0.089777
0.086322
0.089485
0.089828
0.087553
0.087147
0.093232
0.089123
0.085984
0.088298
0.08675
0.091913
0.091269
0.088606
0.088154
0.087991
0.089417
0.09381
0.088873
0.08801
0.08752
0.089287
0.092352
0.088012
0.088276
0.087388
0.088551
0.090436
0.093818
0.088607
0.086772
0.090107
0.091813
0.088802
0.090217
0.088651
0.090555
0.091313
0.089478
0.092733
0.090668
0.089288
0.091152
0.087611
0.095149
0.089291
0.091831
0.093439
0.09223
0.093222
0.094768
0.090811
0.092487
0.089805
0.096361
0.113765
0.116855
0.097684
0.100123
0.093576
0.097335
0.09258
0.090408
0.093466
0.094366
0.093998
0.096451
0.090924
0.093734
0.261505
0.327536
0.119969
0.093942
0.09451
0.094836
0.092126
0.093706
0.097112
0.094714
0.093507
0.093486
0.092826
0.096579
0.092347
0.095848
0.094601
0.097509
0.094342
0.092277
0.095276
0.09346
0.091582
0.094895
0.093178
0.096718
0.095855
0.093379
0.094564
0.093962
0.095399
0.092888
0.094992
0.094665
0.098719
0.091398
0.097112
0.095182
0.107491
0.096136
0.094743
0.096067
0.093694
0.09767
0.096035
0.095637
0.096978
0.098348
0.09856
0.097933
0.094328
0.09834
0.10001
0.09984
0.09559
0.09645
0.09137
0.098746
0.096356
0.096719
0.098179
0.097068
0.098189
0.097402
0.096451
0.095014
0.096944
0.094281
0.099291
0.098987
0.099098
0.100266
0.0972
0.0989
0.097071
0.102292
0.098239
0.096741
0.097488
0.098177
0.099921
0.098439
0.096678
0.096541
0.101975
0.095073
0.098257
0.100134
0.10135
0.095774
0.100408
0.099119
0.102359
0.097941
0.09937
0.103015
0.097291
0.101301
0.101545
0.098841
0.100407
0.100058
0.100587
0.100168
0.105361
0.101176
0.098218
0.099076
0.102852
0.101113
0.104302
0.099879
0.100991
0.102141
0.100851
0.09934
0.100058
0.10068
0.103495
0.103028
0.100584
0.103133
0.104036
0.100022
0.09942
0.100046
0.100501
0.100915
0.101101
0.102736
0.099915
0.104789
0.102553
0.101929
0.102546
0.106077
0.099709
0.102223
0.103351
0.104119
0.102446
0.10103
0.099331
0.101515
0.102636
0.101751
0.103228
0.100911
0.104737
0.101039
0.101028
0.101057
0.107433
0.102473
0.105054
0.102303
0.104516
0.104859
0.102449
0.103046
0.100848
0.107907
0.105436
0.104472
0.105549
0.10777
0.103829
0.104622
0.104021
0.106118
0.107156
0.106314
0.101433
0.105199
0.102228
0.101846
0.105008
0.106859
0.10651
0.104922
0.105829
0.105595
0.10375
0.104724
0.10504
0.107297
0.105528
0.107547
0.104776
0.107437
0.104893
0.104246
0.101937
0.112749
0.104641
0.104493
0.108375
0.108759
0.100876
0.10704
0.104602
0.105701
0.103875
0.106124
0.106787
0.105709
0.108551
0.1059
0.106995
0.105595
0.108035
0.106038
0.105979
0.106751
0.109881
0.105959
0.106225
0.108614
0.10849
0.106609
0.108152
0.108314
0.109638
0.108937
0.108844
0.110339
0.107212
0.109828
0.108351
0.11097
0.109496
0.106186
0.105539
0.108823
0.108064
0.109421
0.109169
0.108241
0.106925
0.108089
0.109638
0.110701
0.111273
0.108939
0.106148
0.107933
0.11482
0.106556
0.109094
0.10662
0.10984
0.110608
0.110905
0.109663
0.113747
0.110648
0.110259
0.111218
0.11432
0.111786
0.109011
0.111596
0.117022
0.107488
0.112614
0.111873
0.111999
0.111792
0.109467
0.110573
0.115351
0.116192
0.110863
0.111288
0.112988
0.111231
0.110731
0.109561
0.111564
0.109147
0.111575
0.116167
0.111938
0.11025
0.107867
0.11215
0.10971
0.11354
0.110875
0.114204
0.108036
0.113397
0.113598
0.11217
0.113674
0.112713
0.112063
0.114942
0.113155
0.112736
0.11034
0.11822
0.110456
0.113273
0.114415
0.113866
0.112376
0.112588
0.112478
0.115388
0.115829
0.112484
0.111512
0.115064
0.111914
0.112105
0.114208
0.120278
0.111215
0.113132
0.117359
0.119705
0.117099
0.111809
0.121949
0.114923
0.11279
0.123877
0.128794
0.116043
0.111534
0.116599
0.118544
0.117168
0.114037
0.11907
0.12179
0.113779
0.11555
0.120888
0.118794
0.122462
0.116878
0.115648
0.114375
0.123102
0.117389
0.116829
0.122742
0.120744
0.123642
0.118734
0.121428
0.118777
0.124201
0.120285
0.116025
0.128242
0.119411
0.122036
0.128659
0.11727
0.115279
0.117147
0.118842
0.122543
0.119101
0.115912
0.115489
0.124299
0.126477
0.128237
0.119953
0.117979
0.117299
0.126863
0.121059
0.121924
0.120427
0.127743
0.11813
0.125138
0.122678
0.126353
0.120918
0.131377
0.117659
0.122482
0.11657
0.118907
0.122222
0.117753
0.122286
0.118097
0.117861
0.124767
0.125687
0.121862
0.120414
0.124749
0.123416
0.119391
0.118755
0.124569
0.117248
0.122597
0.125313
0.124658
0.118732
0.119321
0.122351
0.123823
0.125581
0.128066
0.125306
0.123571
0.125154
0.121857
0.118337
0.121852
0.126267
0.120676
0.132504
0.118525
0.125973
0.125399
0.121255
0.122953
0.132779
0.120223
0.120565
0.121836
0.140252
0.126305
0.129567
0.125798
0.122203
0.137492
0.121212
0.122495
0.119995
0.128559
0.121697
0.124679
0.125521
0.121721
0.12187
0.122648
0.125213
0.128673
0.119702
0.121047
0.125415
0.121497
0.122845
0.125445
0.134547
0.125302
0.121911
0.136873
0.129209
0.121425
0.122058
0.127274
0.121459
0.125736
0.121912
0.126295
0.122331
0.120956
0.12548
0.12929
0.127885
0.129126
0.127295
0.13583
0.126767
0.123664
0.126043
0.125236
0.125343
0.129317
0.122556
0.126121
0.137126
0.135843
0.128966
0.123685
0.125993
0.127254
0.13472
0.128088
0.122505
0.126544
0.127814
0.128804
0.122839
0.12513
0.14098
0.125141
0.123721
0.125528
0.130897
0.125618
0.125217
0.127892
0.125246
0.128702
0.127502
0.126178
0.127134
0.123824
0.130721
0.127463
0.13366
0.132836
0.130519
0.128482
0.133132
0.133135
0.127102
0.128638
0.131645
0.130032
0.131463
0.132391
0.128124
0.130888
0.132832
0.135843
0.132719
0.13362
0.132756
0.129553
0.126352
0.128299
0.129682
0.126782
0.126957
0.131365
0.13905
0.129783
0.12971
0.132977
0.126501
0.130852
0.126672
0.124812
0.140309
0.13091
0.14078
0.128885
0.127403
0.128558
0.129092
0.131453
0.128936
0.13157
0.129335
0.127513
0.127607
0.126869
0.130276
0.128093
0.125885
0.132407
0.128741
0.127897
0.127195
0.131327
0.128079
0.130719
0.130611
0.125878
0.129657
0.13208
0.126923
0.129222
0.130751
0.130639
0.131089
0.126114
0.130731
0.131728
0.132398
0.133049
0.131227
0.169876
0.132391
0.130006
0.131666
0.164048
0.200665
0.130327
0.131025
0.140195
0.139197
0.191599
0.178509
0.135084
0.133697
0.133441
0.13817
0.136762
0.141851
0.132036
0.135309
0.141336
0.136234
0.135497
0.156362
0.139575
0.144332
0.132942
0.131875
0.132435
0.130994
0.130943
0.131555
0.129987
0.13472
0.132403
0.133254
0.131882
0.133698
0.134495
0.134443
0.132743
0.133215
0.133139
0.134369
0.133801
0.133143
0.135218
0.130576
0.133302
0.137861
0.135058
0.132322
0.135284
0.136543
0.133142
0.133948
0.133716
0.133112
0.134707
0.13478
0.133914
0.135975
0.135914
0.133016
0.134074
0.134286
0.132656
0.133777
0.134388
0.132208
0.135687
0.135548
0.137741
0.134796
0.137392
0.136272
0.136315
0.135233
0.139312
0.13265
0.13315
0.140573
0.132518
0.135116
0.135154
0.137652
0.133007
0.135694
0.136414
0.134952
0.134604
0.138513
0.135857
0.137618
0.138101
0.136368
0.137203
0.137322
0.136854
0.155999
0.13924
0.139232
0.142975
0.142389
0.145049
0.140135
0.144083
0.145225
0.142266
0.142624
0.147397
0.142845
0.139375
0.140747
0.139582
0.136302
0.138483
0.138667
0.135607
0.13841
0.138956
0.136001
0.139311
0.13824
0.137216
0.139794
0.136517
0.138598
0.135805
0.142031
0.139679
0.140603
0.14027
0.138487
0.138265
0.140949
0.138875
0.138973
0.141888
0.139252
0.137406
0.144959
0.137913
0.139924
0.143504
0.151931
0.152619
0.35491
0.257655
0.142163
0.144191
0.159835
0.138778
0.145818
0.139596
0.140045
0.14377
0.144122
0.139871
0.139753
0.146667
0.14095
0.148814
0.289273
0.426148
0.142913
0.163214
0.150115
0.177979
0.149714
0.148153
0.148092
0.143418
0.139625
0.144575
0.141545
0.142965
0.143849
0.312128
0.217485
0.143693
0.144808
0.142697
0.143319
0.144315
0.144432
0.140807
0.143254
0.142079
0.146534
0.14181
0.146417
0.141492
0.144814
0.142325
0.143582
0.149661
0.196557
0.184749
0.181591
0.174024
0.154161
0.158158
0.141963
0.141513
0.140702
0.149918
0.143547
0.154307
0.148577
0.143913
0.143902
0.145351
0.143501
0.146502
0.144436
0.143437
0.144491
0.141803
0.143075
0.144255
0.144844
0.144462
0.143567
0.143877
0.143102
0.144662
0.142884
0.145809
0.145799
0.146062
0.143728
0.144518
0.143906
0.146901
0.144114
0.143792
0.145383
0.146366
0.14322
0.147067
0.14591
0.148094
0.144821
0.147536
0.145576
0.147597
0.146028
0.144921
0.146396
0.146316
0.147323
0.147371
0.145301
0.148954
0.147325
0.147173
0.148496
0.144864
0.147217
0.14868
0.147557
0.152526
0.149863
0.14675
0.145819
0.151192
0.14849
0.148166
0.150546
0.147075
0.149189
0.145195
0.152644
0.147182
0.148233
0.147737
0.149075
0.149664
0.148435
0.1473
0.152222
0.142225
0.150286
0.151028
0.148299
0.1487
0.15346
0.147469
0.147367
0.144739
0.149043
0.147427
0.150402
0.148229
0.14956
0.149189
0.146793
0.14613
0.152378
0.146976
0.153571
0.150851
0.148288
0.148429
0.148845
0.149866
0.142218
0.141257
0.149281
0.155575
0.149887
0.15311
0.151268
0.15162
0.149071
0.150534
0.14995
0.148505
0.149192
0.150577
0.152315
0.153164
0.148446
0.150058
0.150226
0.150277
0.15182
0.153717
0.148507
0.150692
0.153467
0.149254
0.154646
0.153366
0.151035
0.149265
0.151655
0.150758
0.15167
0.150944
0.151005
0.149189
0.155651
0.152387
0.153355
0.154674
0.151205
0.155242
0.15183
0.150581
0.150326
0.151749
0.150847
0.153454
0.160851
0.156073
0.155799
0.150774
0.151975
0.157174
0.15132
0.155867
0.150895
0.156564
0.153163
0.152298
0.151403
0.152423
0.153482
0.154207
0.156977
0.154858
0.150839
0.155645
0.154395
0.15338
0.157179
0.154363
0.155464
0.154322
0.154882
0.155657
0.157824
0.15284
0.15329
0.156375
0.156264
0.157352
0.155821
0.157053
0.156192
0.154266
0.155672
0.156459
0.155278
0.153067
0.155708
0.155369
0.158101
0.15906
0.156322
0.154292
0.155853
0.155477
0.158434
0.155216
0.156445
0.155573
0.154782
0.156541
0.158867
0.158069
0.154092
0.158554
0.157953
0.157695
0.157656
0.157717
0.157341
0.156513
0.156935
0.158716
0.157138
0.158422
0.159181
0.155924
0.158495
0.16064
0.157009
0.160941
0.160123
0.158083
0.15884
0.162095
0.157168
0.159761
0.157474
0.158213
0.160132
0.158352
0.161312
0.159321
0.155686
0.157738
0.162741
0.15843
0.156887
0.158406
0.158991
0.16184
0.159724
0.164842
0.17194
0.158523
0.163181
0.158407
0.158755
0.160179
0.159412
0.161316
0.160078
0.15956
0.159531
0.162537
0.159796
0.159385
0.15812
0.163565
0.161765
0.161565
0.161837
0.161558
0.162765
0.157675
0.163172
0.159509
0.159805
0.163102
0.160698
0.160089
