0.001566
0.000557
0.000582
0.000591
0.000626
0.000657
0.000673
0.000747
0.000765
0.000791
0.000836
0.004950
0.001091
0.000969
0.001027
0.001058
0.001157
0.001227
0.001205
0.007561
0.001601
0.001512
0.001569
0.001486
0.001589
0.002168
0.001780
0.001704
0.001780
0.001703
0.002350
0.001898
0.002095
0.005669
0.003993
0.002136
0.002169
0.002202
0.002233
0.002361
0.002365
0.002202
0.006296
0.002691
0.002520
0.005651
0.003102
0.002682
0.002467
0.003137
0.006404
0.002964
0.003030
0.002865
0.006219
0.005349
0.003033
0.003971
0.003166
0.003206
0.003433
0.003302
0.011485
0.003491
0.003459
0.003940
0.003611
0.003651
0.004050
0.008560
0.004098
0.003723
0.003703
0.004321
0.010288
0.004125
0.004050
0.004707
0.004150
0.004173
0.009155
0.004346
0.004244
0.004669
0.006972
0.008528
0.004519
0.004447
0.004839
0.004619
0.011011
0.004690
0.014004
0.011021
0.004948
0.016724
0.008746
0.005433
0.004764
0.005693
0.011581
0.005163
0.005605
0.005128
0.005544
0.014146
0.008527
0.015288
0.015828
0.013689
0.011867
0.006488
0.005434
0.010808
0.014009
0.015665
0.009734
0.014261
0.013765
0.011098
0.012972
0.013576
0.009842
0.014393
0.012578
0.012388
0.015285
0.016150
0.007164
0.019230
0.015089
0.013011
0.009952
0.019410
0.016074
0.021933
0.021241
0.017754
0.016184
0.013729
0.017693
0.013219
0.014464
0.016142
0.014395
0.016004
0.013295
0.015864
0.011465
0.007201
0.012271
0.007190
0.013033
0.015460
0.007594
0.019203
0.021749
0.025316
0.020657
0.007835
0.008431
0.010216
0.007780
0.014838
0.007747
0.008106
0.013350
0.008003
0.011246
0.014361
0.007871
0.011020
0.012037
0.008395
0.008784
0.008684
0.008656
0.014986
0.008461
0.008991
0.013218
0.008366
0.009051
0.015431
0.008692
0.012019
0.011267
0.008771
0.015394
0.009352
0.009378
0.009539
0.012980
0.012975
0.009025
0.009449
0.014219
0.009346
0.015200
0.009174
0.012470
0.013003
0.009592
0.016094
0.009378
0.010013
0.015155
0.009676
0.016094
0.015418
0.014937
0.010121
0.016645
0.010612
0.010557
0.016677
0.010569
0.016625
0.010762
0.016823
0.010767
0.010780
0.017171
0.010713
0.013807
0.014148
0.013924
0.014289
0.011178
0.014129
0.013182
0.016482
0.011419
0.017987
0.011328
0.017364
0.011354
0.011531
0.016158
0.014502
0.011863
0.017776
0.011703
0.011862
0.017977
0.018526
0.011927
0.012393
0.016530
0.012282
0.017179
0.018878
0.012125
0.018189
0.013566
0.018326
0.012366
0.017092
0.012364
0.019752
0.012759
0.015722
0.014653
0.017523
0.012684
0.018701
0.012648
0.018731
0.012466
0.018578
0.016010
0.016236
0.012774
0.017922
0.013121
0.013261
0.019037
0.013030
0.019220
0.013522
0.015966
0.015653
0.017577
0.017202
0.016522
0.013730
0.018283
0.018882
0.016160
0.017499
0.016091
0.017300
0.013935
0.018401
0.013996
0.019289
0.019932
0.016255
0.017471
0.014209
0.018852
0.014143
0.019566
0.020810
0.014410
0.019045
0.017123
0.017803
0.020138
0.014749
0.020902
0.020702
0.014405
0.022531
0.014868
0.017832
0.017606
0.016657
0.022332
0.015204
0.019665
0.019685
0.015135
0.021234
0.020735
0.015301
0.021139
0.015073
0.023389
0.018043
0.017212
0.021336
0.020603
0.015372
0.021969
0.015490
0.020318
0.021462
0.015690
0.021674
0.021714
0.018353
0.019350
0.022181
0.016176
0.022279
0.021270
0.016290
0.022013
0.018796
0.018614
0.022481
0.022213
0.016642
0.022264
0.019281
0.018777
0.021415
0.022024
0.016453
0.023387
0.022340
0.016876
0.022489
0.023863
0.022942
0.017054
0.020769
0.020379
0.019698
0.020701
0.023302
0.016858
0.023434
0.021920
0.022862
0.017449
0.023415
0.023178
0.018042
0.022334
0.023532
0.020177
0.017786
0.024005
0.023602
0.020909
0.021213
0.025031
0.023976
0.018122
0.024247
0.022714
0.023713
0.018245
0.024016
0.024362
0.018233
0.020061
0.024296
0.024523
0.022936
0.021346
0.021752
0.024782
0.024496
0.028802
0.033811
0.021255
0.023012
0.024750
0.024491
0.018855
0.026389
0.022089
0.024735
0.025225
0.019321
0.024979
0.025459
0.025830
0.022070
0.021689
0.024260
0.025942
0.023621
0.025832
0.019489
0.025017
0.025461
0.025523
0.019848
0.024578
0.026578
0.024572
0.025696
0.026395
0.020670
0.026201
0.024872
0.025952
0.026120
0.025876
0.020110
0.025275
0.026747
0.025878
0.026415
0.021028
0.026408
0.028498
0.025344
0.026650
0.026430
0.020685
0.028369
0.023881
0.026344
0.027223
0.026876
0.026544
0.027448
0.020922
0.025836
0.026655
0.027473
0.025651
0.028072
0.026795
0.021721
0.027526
0.027300
0.027785
0.026298
0.027094
0.027739
0.026520
0.021815
0.026782
0.029890
0.025997
0.028873
0.027979
0.028507
0.027325
0.027867
0.028069
0.022940
0.026847
0.028430
0.025625
0.027966
0.028053
0.028035
0.027135
0.028295
0.027917
0.028795
0.022780
0.030447
0.025713
0.028462
0.028771
0.028958
0.028703
0.028819
0.027623
0.028791
0.025380
0.029305
0.027445
0.029076
0.029028
0.029843
0.028029
0.027978
0.029220
0.029318
0.030384
0.029242
0.028912
0.030399
0.028605
0.030395
0.030925
0.029219
0.028497
0.029503
0.030024
0.028258
0.029631
0.030429
0.030041
0.029548
0.024499
0.035612
0.023682
0.029028
0.029369
0.030134
0.030035
0.029892
0.030084
0.030185
0.030368
0.030486
0.028146
0.030723
0.030781
0.031814
0.033081
0.030685
0.028548
0.032292
0.030950
0.030733
0.030932
0.031089
0.031311
0.028038
0.032920
0.031216
0.031301
0.032472
0.031951
0.030035
0.033075
0.030090
0.031589
0.031653
0.031178
0.032139
0.030237
0.033718
0.031584
0.029505
0.030878
0.034618
0.029142
0.032010
0.033920
0.033552
0.031429
0.031662
0.031663
0.032105
0.031781
0.031902
0.033102
0.031970
0.029915
0.032820
0.032796
0.035797
0.033465
0.032260
0.032530
0.032292
0.032781
0.032089
0.033412
0.032597
0.032825
0.033119
0.036065
0.032164
0.032572
0.032226
0.032669
0.032784
0.033081
0.032302
0.033462
0.032958
0.033585
0.036285
0.032492
0.032941
0.033044
0.035092
0.033137
0.033126
0.033385
0.033144
0.034731
0.035955
0.032601
0.033026
0.033895
0.034506
0.033511
0.034235
0.033677
0.036400
0.033199
0.036657
0.034382
0.034609
0.034005
0.034216
0.034859
0.034320
0.035085
0.037633
0.034934
0.037328
0.034362
0.034817
0.034199
0.035072
0.037135
0.033935
0.034713
0.034656
0.034735
0.035185
0.035015
0.035295
0.036159
0.034842
0.035644
0.038690
0.037150
0.034928
0.034775
0.034630
0.035469
0.037903
0.034429
0.035528
0.035944
0.035461
0.036250
0.037259
0.034951
0.035932
0.036524
0.035549
0.036758
0.035773
0.036467
0.036112
0.036087
0.037273
0.035821
0.035699
0.036463
0.036806
0.037016
0.035488
0.035559
0.036509
0.036613
0.037788
0.036188
0.036532
0.036930
0.037018
0.039136
0.037024
0.036821
0.039505
0.036418
0.037507
0.037721
0.037859
0.036242
0.037072
0.047447
0.037718
0.060590
0.041331
0.037440
0.037228
0.037369
0.036547
0.037185
0.041094
0.036377
0.037570
0.037786
0.040296
0.038711
0.037758
0.037915
0.038088
0.039010
0.037266
0.038981
0.038019
0.038886
0.037852
0.038996
0.038150
0.038588
0.037430
0.038115
0.038408
0.039815
0.037862
0.037913
0.038826
0.039261
0.038463
0.038402
0.039236
0.037964
0.037822
0.039570
0.039776
0.037853
0.039018
0.040111
0.041082
0.038753
0.038688
0.039008
0.039578
0.039195
0.043190
0.038216
0.038823
0.041059
0.040284
0.038770
0.040304
0.040418
0.039434
0.039505
0.039803
0.038572
0.038872
0.041596
0.039487
0.039974
0.042366
0.039847
0.040289
0.041429
0.039823
0.041215
0.041855
0.039770
0.040434
0.041016
0.039512
0.040466
0.041155
0.039881
0.040538
0.041548
0.039663
0.042673
0.041546
0.040302
0.040458
0.041706
0.040247
0.041149
0.042054
0.039950
0.041189
0.042097
0.040610
0.041967
0.040178
0.040559
0.041437
0.042415
0.041001
0.040666
0.043229
0.040449
0.041762
0.042327
0.040976
0.041041
0.042654
0.041407
0.044898
0.040754
0.042174
0.042814
0.041557
0.041855
0.042774
0.042071
0.052749
0.050164
0.041866
0.043689
0.041652
0.042071
0.041622
0.041982
0.041835
0.044385
0.046599
0.042337
0.043503
0.042608
0.043653
0.043120
0.042260
0.043139
0.045599
0.046421
0.042201
0.044589
0.043254
0.043786
0.042127
0.043472
0.044454
0.043049
0.043594
0.043505
0.044320
0.043002
0.043816
0.043851
0.044504
0.042917
0.043420
0.044431
0.046724
0.043502
0.044779
0.043120
0.045105
0.043683
0.044782
0.043730
0.045442
0.045448
0.045102
0.043314
0.045554
0.044043
0.044926
0.046543
0.043350
0.047802
0.043735
0.045518
0.045072
0.046640
0.044053
0.045052
0.045441
0.044189
0.046390
0.045841
0.045181
0.044546
0.045664
0.047923
0.060921
0.045856
0.047625
0.045862
0.045086
0.046226
0.044843
0.046844
0.043771
0.046862
0.044969
0.046377
0.044957
0.046552
0.044844
0.047049
0.044875
0.046258
0.044938
0.046672
0.046209
0.048445
0.048992
0.047638
0.045881
0.046791
0.045644
0.047312
0.047379
0.047980
0.046811
0.046907
0.046359
0.047914
0.045471
0.047307
0.045624
0.047289
0.045620
0.047922
0.046175
0.045406
0.046446
0.048697
0.046199
0.047997
0.046491
0.047522
0.046645
0.049102
0.046987
0.047185
0.047281
0.047787
0.047167
0.049804
0.047050
0.048211
0.047341
0.049229
0.047161
0.047997
0.047041
0.049150
0.046665
0.049358
0.049573
0.046659
0.047537
0.049003
0.047460
0.050368
0.047203
0.049239
0.047108
0.049559
0.047918
0.049382
0.050181
0.048813
0.043223
0.049943
0.073713
0.049344
0.047830
0.050089
0.048107
0.049481
0.047786
0.049292
0.050684
0.047705
0.049055
0.049940
0.048595
0.052147
0.048411
0.050820
0.048181
0.050120
0.047964
0.050058
0.052387
0.049538
0.050813
0.049744
0.051259
0.049099
0.050665
0.049816
0.051084
0.064980
0.059656
0.051112
0.049324
0.051066
0.048639
0.051105
0.050237
0.051224
0.050293
0.051518
0.049150
0.051524
0.050031
0.051075
0.051498
0.051242
0.050214
0.054798
0.051510
0.057020
0.050000
0.050962
0.051592
0.049766
0.051849
0.055568
0.051840
0.050664
0.051853
0.051648
0.051803
0.051517
0.052147
0.051489
0.052027
0.051573
0.053517
0.052962
0.052639
0.050857
0.052476
0.050732
0.052714
0.051729
0.052467
0.051610
0.052125
0.050998
0.052073
0.053219
0.051872
0.053005
0.052033
0.053317
0.051619
0.053010
0.051315
0.053682
0.052339
0.052494
0.052021
0.054169
0.051677
0.053968
0.052553
0.053106
0.052076
0.053916
0.052688
0.054022
0.055361
0.054251
0.052872
0.053930
0.053257
0.054123
0.053368
0.054057
0.053491
0.054430
0.052336
0.054205
0.057167
0.052851
0.054270
0.053382
0.054466
0.052628
0.054569
0.053058
0.055036
0.053508
0.054768
0.056285
0.053201
0.055669
0.053359
0.055917
0.053302
0.055100
0.053763
0.055469
0.053348
0.054756
0.057425
0.053425
0.055368
0.053845
0.055463
0.054132
0.055535
0.054079
0.055909
0.054149
0.055795
0.057219
0.053736
0.056055
0.054439
0.057280
0.054410
0.055844
0.055013
0.055999
0.054596
0.055979
0.056659
0.056799
0.060788
0.055146
0.056657
0.055239
0.057608
0.055342
0.056458
0.055274
0.056957
0.056829
0.056605
0.050314
0.057650
0.056563
0.054866
0.060674
0.054995
0.056338
0.060464
0.056972
0.057850
0.057772
0.057970
0.055787
0.057866
0.057534
0.058338
0.060428
0.056030
0.060246
0.055639
0.058178
0.058980
0.058542
0.057695
0.058070
0.058861
0.057917
0.058236
0.061269
0.082730
0.058204
0.058455
0.058888
0.058553
0.058303
0.057828
0.058095
0.058589
0.058590
0.058305
0.058778
0.059987
0.059193
0.058938
0.058476
0.059742
0.059247
0.059229
0.059891
0.058600
0.059740
0.058513
0.059124
0.059226
0.059039
0.058911
0.058773
0.059496
0.060887
0.058902
0.058660
0.059578
0.059754
0.059030
0.059624
0.059125
0.059463
0.059064
0.063563
0.058220
0.059455
0.059255
0.060331
0.059793
0.060591
0.060416
0.060511
0.060056
0.062462
0.057967
0.059950
0.061553
0.060865
0.079133
0.059876
0.060504
0.060926
0.059947
0.060039
0.060647
0.060779
0.060222
0.060866
0.061207
0.061099
0.060927
0.061510
0.063480
0.059529
0.060926
0.060441
0.061386
0.060396
0.060692
0.061397
0.060989
0.061285
0.066136
0.059453
0.061195
0.061466
0.061580
0.061707
0.061047
0.061608
0.061790
0.062462
0.062327
0.061779
0.062572
0.062645
0.061682
0.062053
0.062321
0.062303
0.061887
0.061822
0.066176
0.060319
0.061922
0.062160
0.062588
0.062397
0.063055
0.062554
0.062449
0.064025
0.077989
0.062531
0.063439
0.062700
0.062205
0.061944
0.062861
0.062945
0.063161
0.065850
0.066482
0.064776
0.063027
0.069370
0.063259
0.063302
0.063959
0.062958
0.066693
0.061684
0.063245
0.064011
0.064391
0.064463
0.064671
0.063418
0.063393
0.064413
0.064072
0.063545
0.064190
0.063942
0.063787
0.064117
0.063475
0.063778
0.065037
0.067143
0.063370
0.065197
0.064512
0.065182
0.064760
0.064531
0.065205
0.064605
0.068989
0.062753
0.064457
0.064857
0.089186
0.063882
0.065224
0.064584
0.064872
0.067143
0.063438
0.065660
0.065607
0.065510
0.064485
0.070120
0.065615
0.070957
0.066791
0.063431
0.065995
0.066715
0.065412
0.066497
0.065666
0.065448
0.066167
0.068481
0.065366
0.067238
0.065827
0.066064
0.066831
0.066043
0.066673
0.067603
0.068163
0.064020
0.066218
0.066235
0.065875
0.067004
0.066201
0.066813
0.066156
0.069089
0.064590
0.067335
0.067589
0.066562
0.066460
0.066971
0.066360
0.067728
0.069388
0.064651
0.066676
0.066654
0.096865
0.067897
0.078811
0.067219
0.068687
0.066576
0.067246
0.080539
0.067509
0.081302
0.068245
0.075239
0.071353
0.066920
0.081302
0.066695
0.067847
0.068467
0.067827
0.067735
0.068371
0.070011
0.066388
0.067704
0.068066
0.069419
0.068305
0.068254
0.068501
0.070630
0.071129
0.066383
0.067597
0.068712
0.068349
0.068443
0.069495
0.069372
0.069266
0.069831
0.069044
0.070398
0.089355
0.068862
0.069187
0.069008
0.070264
0.068667
0.071433
0.066976
0.069133
0.104264
0.069487
0.068742
0.070361
0.104329
0.067545
0.070372
0.103123
0.069848
0.086046
0.083783
0.071256
0.072342
0.068151
0.069899
0.069337
0.069793
0.071113
0.070801
0.070197
0.069538
0.070066
0.071197
0.070233
0.070237
0.069661
0.101627
0.071220
0.070359
0.073196
0.068933
0.070177
0.069451
0.070890
0.070423
0.089441
0.078635
0.072682
0.103475
0.080759
0.091340
0.070918
0.106354
0.070923
0.072740
0.069897
0.071192
0.071592
0.071269
0.071304
0.102126
0.070981
0.073674
0.070567
0.070441
0.071368
0.095687
0.072506
0.073494
0.071233
0.073401
0.070430
0.071977
0.071409
0.071257
0.072675
0.071618
0.072654
0.074665
0.071274
0.072699
0.072513
0.072060
0.072487
0.073329
0.074756
0.074689
0.072516
0.073685
0.072947
0.072690
0.073530
0.073411
0.074117
0.072889
0.072434
0.074569
0.075807
0.073737
0.073671
0.074011
0.075155
0.073732
0.074635
0.074045
0.074188
0.074683
0.074508
0.074424
0.075090
0.075607
0.075015
0.074487
0.074274
0.072720
0.072771
0.093966
0.074411
0.073324
0.072163
0.073464
0.074250
0.073390
0.075482
0.075354
0.074416
0.075653
0.073521
0.076576
0.074780
0.076931
0.075520
0.075279
0.076969
0.077466
0.076591
0.076566
0.076079
0.075397
0.074320
0.075330
0.074086
0.077090
0.074977
0.074881
0.073666
0.075259
0.076590
0.076143
0.078266
0.076167
0.074807
0.075918
0.078494
0.097336
0.076868
0.076574
0.076182
0.080035
0.074778
0.077598
0.077546
0.077339
0.076504
0.079081
0.078009
0.077701
0.076973
0.077919
0.077018
0.076691
0.076537
0.076582
0.077416
0.076175
0.078167
0.077426
0.077788
0.079131
0.078902
0.077625
0.080261
0.078433
0.078367
0.077997
0.079164
0.078786
0.078257
0.078211
0.080611
0.077046
0.077559
0.078130
0.078405
0.078201
0.079105
0.080611
0.078766
0.077685
0.078424
0.078958
0.078671
0.078779
0.078659
0.081253
0.078067
0.080416
0.079653
0.078214
0.078644
0.079894
0.079129
0.076060
0.078071
0.077802
0.078513
0.078493
0.079707
0.078199
0.079907
0.079337
0.078087
0.078471
0.078485
0.078215
0.081033
0.079042
0.082928
0.077948
0.080398
0.080311
0.079326
0.079633
0.079534
0.081664
0.080990
0.079956
0.080948
0.080429
0.080332
0.082517
0.081200
0.080769
0.080828
0.080108
0.079525
0.078738
0.079220
0.102261
0.083177
0.079045
0.079342
0.079961
0.079895
0.080458
0.083002
0.082747
0.081443
0.080746
0.079690
0.079712
0.079803
0.079143
0.079413
0.080162
0.081269
0.080549
0.080794
0.079871
0.080434
0.079760
0.081955
0.085594
0.091901
0.080673
0.081693
0.103741
0.082517
0.084222
0.082325
0.082693
0.082718
0.081841
0.081790
0.083435
0.080969
0.084644
0.079716
0.081318
0.081261
0.080398
0.081107
0.081935
0.085494
0.080995
0.081868
0.081524
0.082622
0.083926
0.081701
0.081799
0.081337
0.081943
0.081121
0.083198
0.083865
0.083319
0.082957
0.083236
0.083449
0.105873
0.084386
0.083493
0.083851
0.083613
0.083343
0.084218
0.083911
0.083288
0.083395
0.084385
0.083931
0.084585
0.084550
0.083819
0.084341
0.083722
0.084403
0.085125
0.086311
0.082202
0.084150
0.083713
0.084028
0.084704
0.084881
0.089314
0.085331
0.083374
0.083934
0.083662
0.085148
0.083061
0.086258
0.081565
0.083553
0.084408
0.083863
0.082729
0.084332
0.086602
0.081712
0.086017
0.085902
0.085853
0.085761
0.086671
0.087796
0.083549
0.085049
0.085794
0.085539
0.085533
0.085506
0.088733
0.085435
0.087405
0.086073
0.086665
0.087579
0.085889
0.088402
0.086759
0.095690
0.091587
0.085853
0.086531
0.085948
0.090896
0.087760
0.086071
0.087015
0.088536
0.086713
0.086311
0.086400
0.086605
0.086306
0.085941
0.086732
0.087467
0.088940
0.087819
0.086660
0.086768
0.087310
0.088287
0.088693
0.089483
0.087395
0.087708
0.087963
0.087774
0.087550
0.086814
0.091911
0.087738
0.087611
0.087353
0.089506
0.089257
0.087705
0.090413
0.087525
0.088613
0.087612
0.087720
0.112007
0.087889
0.092060
0.088139
0.088429
0.088761
0.089395
0.087639
0.088753
0.088122
0.089779
0.089323
0.088988
0.088593
0.089035
0.091200
0.088765
0.089141
0.090204
0.093561
0.097974
0.089893
0.091622
0.089677
0.090438
0.089205
0.089195
0.089022
0.090382
0.087128
0.090033
0.089274
0.090699
0.091046
0.089624
0.091770
0.090942
0.090358
0.088875
0.090451
0.090173
0.090784
0.092695
0.090891
0.090948
0.089990
0.091564
0.090492
0.092820
0.090794
0.091099
0.089974
0.090389
0.090034
0.090462
0.093338
0.091914
0.090355
0.090596
0.090605
0.091085
0.090149
0.089874
0.090582
0.090731
0.091701
0.092296
0.092115
0.092682
0.091679
0.091472
0.091703
0.092325
0.091456
0.091252
0.090747
0.090604
0.091556
0.091353
0.091501
0.093036
0.095302
0.090615
0.091427
0.092244
0.094950
0.092742
0.091591
0.091591
0.092609
0.091688
0.092835
0.091918
0.091989
0.094060
0.092391
0.091798
0.091934
0.093599
0.092313
0.093134
0.092527
0.092180
0.092128
0.091957
0.092491
0.093649
0.095846
0.092416
0.092962
0.092085
0.094482
0.093031
0.093435
0.095121
0.092941
0.093942
0.093443
0.094245
0.093320
0.095613
0.092824
0.093747
0.093587
0.093995
0.094456
0.094008
0.097155
0.094458
0.093905
0.093639
0.093601
0.095465
0.095872
0.094057
0.093445
0.094450
0.094644
0.094166
0.097304
0.096065
0.094758
0.095914
0.094442
0.117573
0.098595
0.094052
0.094624
0.094568
0.096830
0.094245
0.094259
0.097072
0.095014
0.095270
0.095495
0.095439
0.096245
0.096902
0.094870
0.094757
0.096359
0.095569
0.119007
0.098438
0.095118
0.094736
0.095406
0.095232
0.096513
0.098276
0.095712
0.095213
0.096963
0.095624
0.096623
0.096013
0.092749
0.095951
0.096025
0.095767
0.095962
0.095442
0.098374
0.096020
0.119356
0.096524
0.096501
0.095569
0.102190
0.096172
0.095486
0.096078
0.095453
0.097477
0.099220
0.095806
0.096715
0.096013
0.095416
0.096740
0.100611
0.096830
0.096357
0.097273
0.096852
0.097465
0.098756
0.096854
0.097489
0.099042
0.097100
0.097505
0.098972
0.096280
0.098171
0.098215
0.097397
0.097621
0.099812
0.097676
0.098419
0.097831
0.100215
0.097627
0.096942
0.098736
0.097607
0.098227
0.098445
0.098608
0.100575
0.100304
0.098539
0.097666
0.099044
0.098006
0.099191
0.100166
0.097956
0.099044
0.097997
0.097942
0.099907
0.101881
0.098601
0.098856
0.099257
0.100083
0.098850
0.100224
0.097555
0.097632
0.097387
0.097730
0.097868
0.100514
0.097517
0.098082
0.099589
0.098071
0.098473
0.100988
0.100024
0.099407
0.098886
0.100065
0.099734
0.101653
0.098475
0.098838
0.100964
0.099410
0.099127
0.099959
0.097884
0.098080
0.098563
0.098515
0.118410
0.100911
0.099492
0.098343
0.099960
0.099705
0.100060
0.101746
0.099016
0.100917
0.099473
0.099932
0.099899
0.100751
0.122686
0.098741
0.100016
0.099001
0.098728
0.100404
0.099021
0.099176
0.100328
0.101204
0.102721
0.100697
0.102217
0.102547
0.102353
0.101273
0.101111
0.100160
0.101552
0.101243
0.102578
0.101551
0.101421
0.101131
0.101515
0.101994
0.101413
0.101071
0.104182
0.102750
0.102741
0.128987
0.102010
0.103174
0.106283
0.103081
0.101815
0.102760
0.101383
0.105603
0.103349
0.104019
0.103133
0.101972
0.103857
0.103203
0.104094
0.103079
0.105319
0.103662
0.102016
0.102534
0.103654
0.101160
0.104059
0.101403
0.101665
0.101059
0.104772
0.103636
0.105319
0.104183
0.102539
0.103448
0.104341
0.104115
0.103521
0.104220
0.105349
0.106512
0.103928
0.106409
0.102406
0.104207
0.103392
0.105570
0.103334
0.103563
0.103632
0.105372
0.104095
0.105590
0.103812
0.103940
0.104130
0.105244
0.105165
0.103575
0.104048
0.102664
0.102965
0.104169
0.128212
0.103893
0.105078
0.102877
0.103707
0.103044
0.105188
0.104134
0.104298
0.103209
0.104399
0.104336
0.104067
0.103648
0.105159
0.104123
0.103550
0.106077
0.103392
0.104971
0.104714
0.105000
0.129459
0.106910
0.103673
0.104214
0.105190
0.104726
0.104517
0.102929
0.105409
0.104081
0.105849
0.105563
0.106334
0.105338
0.106168
0.104627
0.105550
0.105386
0.107106
0.104611
0.104254
0.103992
0.106191
0.105274
0.112645
0.105649
0.106406
0.106215
0.105652
0.106022
0.106519
0.104744
0.105101
0.105951
0.104737
0.123371
0.109430
0.108162
0.105886
0.106269
0.105353
0.107395
0.106084
0.105557
0.106154
0.106145
0.105568
0.108707
0.107242
0.105195
0.106904
0.106908
0.106408
0.107189
0.106485
0.107022
0.105687
0.106374
0.108790
0.106843
0.106299
0.106069
0.106577
0.106663
0.109175
0.106746
0.108764
0.107782
0.106449
0.108594
0.108046
0.106859
0.111929
0.120297
0.107170
0.109605
0.107536
0.106683
0.138503
0.106923
0.109814
0.108442
0.108381
0.107592
0.108397
0.107972
0.108586
0.108211
0.109416
0.107045
0.112561
0.109891
0.110342
0.108261
0.107969
0.107467
0.109279
0.109406
0.108123
0.109001
0.108759
0.108251
0.109460
0.110224
0.108713
0.108182
0.109092
0.108198
0.108663
0.109374
0.109192
0.109352
0.109334
0.110918
0.110845
0.109634
0.108940
0.109062
0.109279
0.108180
0.108990
0.109479
0.108973
0.109184
0.111664
0.111016
0.110456
0.111440
0.110632
0.110777
0.112774
0.109726
0.109566
0.110719
0.110041
0.110557
0.111800
0.110352
0.109633
0.110168
0.110883
0.111973
0.110793
0.111359
0.110269
0.136421
0.114602
0.111154
0.110551
0.111076
0.125335
0.111408
0.111393
0.114086
0.111650
0.110822
0.110216
0.113508
0.110631
0.110753
0.111143
0.110915
0.113206
0.111044
0.111743
0.115450
0.123574
0.113275
0.125700
0.145946
0.112139
0.111895
0.114136
0.112529
0.113777
0.111959
0.111835
0.112885
0.113091
0.111369
0.111365
0.112076
0.113510
0.115612
0.111373
0.112675
0.112735
0.112179
0.115034
0.111843
0.112795
0.112817
0.111981
0.114249
0.113357
0.113423
0.113192
0.112959
0.113364
0.114410
0.112828
0.113869
0.111452
0.132411
0.115443
0.112605
0.113456
0.112615
0.113208
0.114755
0.113454
0.112805
0.113391
0.112900
0.115133
0.112331
0.114753
0.114435
0.116221
0.112962
0.112982
0.113335
0.113434
0.114456
0.113950
0.117172
0.114258
0.115036
0.113696
0.113708
0.116070
0.114407
0.113074
0.115192
0.113816
0.117363
0.114456
0.114651
0.121287
0.116226
0.114029
0.113511
0.114779
0.116296
0.114993
0.114622
