0.000167
0.000196
0.000396
0.000428
0.000510
0.000631
0.000695
0.000782
0.000853
0.000941
0.001094
0.001125
0.001201
0.001306
0.001383
0.001465
0.001570
0.001623
0.001464
0.000838
0.000856
0.000897
0.000934
0.000994
0.001008
0.001047
0.001095
0.001141
0.001176
0.001215
0.001244
0.001274
0.001310
0.001387
0.001406
0.001475
0.001479
0.001497
0.001544
0.001573
0.001615
0.001650
0.001687
0.001734
0.001760
0.001805
0.001837
0.001876
0.001912
0.001957
0.001989
0.002028
0.002064
0.002154
0.002137
0.002184
0.002212
0.002284
0.002295
0.002328
0.002377
0.002401
0.002460
0.002480
0.002517
0.002564
0.002559
0.002628
0.002667
0.002711
0.002741
0.002782
0.002817
0.002852
0.002901
0.002933
0.002971
0.003005
0.003047
0.003079
0.003118
0.003153
0.003203
0.003235
0.003269
0.003316
0.003347
0.003380
0.003419
0.003461
0.003498
0.003534
0.003576
0.003609
0.003643
0.003689
0.003721
0.003774
0.003815
0.003851
0.003877
0.003921
0.003965
0.004002
0.004037
0.004085
0.004109
0.004158
0.004191
0.004227
0.004272
0.004292
0.004341
0.004382
0.004414
0.004452
0.004480
0.004520
0.004569
0.004595
0.004633
0.004681
0.004707
0.004762
0.004794
0.004826
0.004923
0.004906
0.004947
0.004979
0.005007
0.005063
0.005091
0.005136
0.005163
0.005203
0.005242
0.005270
0.005326
0.005355
0.005394
0.005430
0.005467
0.005505
0.005550
0.005579
0.005621
0.005654
0.005697
0.005731
0.005828
0.005809
0.005853
0.005880
0.005907
0.005957
0.006014
0.006033
0.006070
0.006110
0.006151
0.006181
0.006211
0.006248
0.006303
0.006325
0.006375
0.006413
0.006451
0.006488
0.006529
0.006559
0.006595
0.006641
0.006671
0.006721
0.006752
0.015380
0.006834
0.006874
0.006912
0.006948
0.006983
0.007027
0.007068
0.007101
0.007139
0.007164
0.007221
0.007257
0.007283
0.007363
0.007345
0.007405
0.007490
0.007524
0.008423
0.007825
0.007894
0.008792
0.008516
0.007963
0.007899
0.007789
0.007816
0.007870
0.007955
0.007975
0.007974
0.008019
0.008045
0.008107
0.008122
0.008242
0.008189
0.008227
0.008250
0.008281
0.008330
0.008356
0.008446
0.008451
0.008484
0.008502
0.008554
0.008578
0.008619
0.008700
0.008695
0.008746
0.008789
0.008817
0.008861
0.008895
0.008936
0.008961
0.009009
0.009036
0.009086
0.009119
0.009163
0.009202
0.009239
0.009319
0.009305
0.009346
0.009384
0.009423
0.009446
0.009492
0.009541
0.009575
0.009615
0.009648
0.009677
0.009786
0.009760
0.009794
0.009830
0.009876
0.009914
0.009954
0.009985
0.010026
0.010059
0.010095
0.010127
0.010251
0.010217
0.010244
0.010285
0.010321
0.010356
0.010404
0.010441
0.010479
0.010515
0.010545
0.010593
0.010656
0.010674
0.010698
0.010738
0.010779
0.010815
0.010847
0.010890
0.010930
0.010959
0.011007
0.011036
0.011084
0.011112
0.011248
0.011223
0.011231
0.011278
0.011307
0.011550
0.011394
0.011410
0.011563
0.011543
0.011528
0.011565
0.011606
0.011642
0.011669
0.011722
0.011752
0.011785
0.011827
0.011871
0.011907
0.011940
0.011972
0.012019
0.012059
0.012133
0.012130
0.012164
0.012206
0.012242
0.012282
0.012320
0.012360
0.012430
0.012451
0.012471
0.012510
0.012536
0.012577
0.012613
0.012662
0.012699
0.012727
0.012772
0.012807
0.012852
0.012874
0.012924
0.012952
0.013001
0.013026
0.013061
0.013108
0.013151
0.013188
0.013222
0.013267
0.013298
0.013452
0.013414
0.013410
0.013445
0.013484
0.013514
0.013569
0.013600
0.013642
0.013673
0.013706
0.013751
0.013786
0.013834
0.013861
0.013896
0.013937
0.013980
0.014011
0.014046
0.014079
0.014123
0.014166
0.014202
0.014282
0.014279
0.014313
0.014353
0.014384
0.014440
0.014455
0.014506
0.014535
0.014570
0.014601
0.014656
0.014684
0.014728
0.014760
0.014795
0.014847
0.014880
0.014920
0.014953
0.014996
0.015028
0.015069
0.015105
0.015143
0.015175
0.015217
0.015256
0.015293
0.015328
0.015373
0.015460
0.015435
0.015485
0.015520
0.015559
0.015589
0.015625
0.015651
0.015760
0.015746
0.015824
0.015812
0.015911
0.015895
0.015940
0.015975
0.016011
0.016039
0.016086
0.016114
0.016158
0.016200
0.016229
0.016274
0.016307
0.016336
0.016386
0.016415
0.016459
0.016491
0.016536
0.016575
0.016614
0.016645
0.016890
0.016723
0.016764
0.016801
0.016833
0.016874
0.016908
0.016955
0.016980
0.017021
0.017069
0.017097
0.017194
0.017174
0.017211
0.017249
0.017276
0.017332
0.017365
0.017393
0.017441
0.017519
0.017513
0.017554
0.017588
0.017623
0.017662
0.017706
0.017741
0.017776
0.017811
0.017862
0.017894
0.017933
0.017957
0.018007
0.018039
0.018080
0.018114
0.018151
0.018188
0.018233
0.018261
0.018300
0.018341
0.018382
0.018415
0.018453
0.018491
0.018535
0.018553
0.018607
0.018638
0.018671
0.018721
0.022287
0.018829
0.018845
0.018868
0.018901
0.018942
0.018975
0.019009
0.019059
0.019088
0.019125
0.019174
0.019213
0.019248
0.019287
0.019291
0.019360
0.019395
0.019434
0.019473
0.019509
0.019537
0.019587
0.019619
0.019659
0.019701
0.019735
0.019775
0.019813
0.019847
0.019876
0.019912
0.019961
0.019998
0.020029
0.020072
0.020103
0.020149
0.020172
0.020218
0.020254
0.020309
0.020325
0.020367
0.020414
0.020447
0.020488
0.020525
0.020558
0.020594
0.020639
0.020715
0.020714
0.020756
0.020904
0.020829
0.020862
0.020897
0.020926
0.020975
0.021012
0.021055
0.021097
0.021132
0.021163
0.021216
0.021242
0.021279
0.021318
0.021332
0.021393
0.021431
0.021458
0.021493
0.021546
0.021579
0.021615
0.021654
0.021689
0.021722
0.021770
0.021800
0.021843
0.021881
0.021901
0.021954
0.021994
0.022034
0.022067
0.022104
0.022140
0.022172
0.022212
0.022247
0.022286
0.022329
0.022367
0.022400
0.022474
0.022485
0.022526
0.022560
0.022588
0.022636
0.022659
0.022713
0.022740
0.022783
0.022816
0.022900
0.022898
0.022937
0.022974
0.023007
0.023045
0.023087
0.023113
0.023160
0.023196
0.023225
0.023276
0.023304
0.023351
0.023377
0.023425
0.023451
0.023493
0.023537
0.023574
0.023605
0.023651
0.023688
0.023726
0.023753
0.023796
0.023834
0.023872
0.023910
0.023949
0.024040
0.024020
0.024161
0.024103
0.024130
0.024284
0.024204
0.024255
0.024290
0.024316
0.024356
0.024398
0.024443
0.024480
0.024518
0.024554
0.024584
0.024608
0.024672
0.024701
0.024738
0.024775
0.024816
0.024855
0.024891
0.024929
0.024963
0.025005
0.025042
0.025076
0.025110
0.025150
0.025193
0.025221
0.025268
0.025303
0.025334
0.025382
0.025419
0.025458
0.025493
0.025532
0.025607
0.025603
0.025644
0.025679
0.025711
0.025761
0.025793
0.025826
0.025871
0.025903
0.025944
0.025987
0.026009
0.026058
0.026092
0.026132
0.026175
0.026192
0.026236
0.026281
0.026315
0.026347
0.026384
0.026494
0.026465
0.026492
0.026542
0.026581
0.026624
0.026659
0.026695
0.026742
0.026771
0.026800
0.026848
0.026890
0.026912
0.026961
0.030553
0.027041
0.027065
0.027107
0.027153
0.027295
0.027222
0.027255
0.027300
0.027326
0.027381
0.027415
0.027448
0.027488
0.027527
0.027563
0.027598
0.027633
0.027675
0.027713
0.027749
0.027796
0.027819
0.027862
0.027904
0.027936
0.027976
0.028014
0.028030
0.028087
0.028127
0.028161
0.032204
0.028241
0.028281
0.028315
0.028378
0.028395
0.028427
0.028455
0.028505
0.028525
0.028594
0.028619
0.028652
0.028685
0.028730
0.028766
0.028812
0.028837
0.028940
0.028913
0.028963
0.028983
0.029030
0.029070
0.029104
0.029144
0.029175
0.029223
0.029254
0.029337
0.029325
0.029365
0.029407
0.029445
0.029481
0.029521
0.029557
0.029585
0.029669
0.029667
0.029712
0.029740
0.029790
0.029811
0.029980
0.029898
0.029941
0.029969
0.030013
0.030042
0.030088
0.030118
0.030150
0.030195
0.030234
0.030271
0.030315
0.030336
0.030377
0.030424
0.030454
0.030499
0.030527
0.030571
0.030615
0.030650
0.030681
0.030718
0.030751
0.030854
0.030838
0.031170
0.031273
0.031737
0.031077
0.031044
0.031081
0.031094
0.031137
0.031179
0.031209
0.031252
0.031290
0.031319
0.031364
0.031399
0.031427
0.031475
0.031515
0.031546
0.031588
0.031625
0.031667
0.031703
0.031737
0.031780
0.031818
0.031849
0.031891
0.031926
0.031958
0.032003
0.032049
0.032111
0.032134
0.032153
0.032197
0.032220
0.032271
0.032292
0.032451
0.032376
0.032427
0.032444
0.032486
0.032523
0.032555
0.032664
0.032634
0.032678
0.032715
0.032757
0.032792
0.032827
0.032868
0.032905
0.032942
0.032977
0.033020
0.033058
0.033091
0.033128
0.033170
0.036740
0.033242
0.033285
0.033319
0.033350
0.033399
0.033436
0.033476
0.033508
0.033532
0.033575
0.033620
0.033651
0.033696
0.033729
0.033774
0.033808
0.033850
0.033882
0.033924
0.033944
0.034000
0.034033
0.034074
0.034113
0.034150
0.034188
0.034216
0.034260
0.034301
0.034369
0.034364
0.034415
0.034453
0.034532
0.034513
0.034568
0.034620
0.034652
0.034681
0.034705
0.034751
0.034787
0.034820
0.034863
0.034901
0.034938
0.034965
0.035015
0.035054
0.035088
0.035117
0.035163
0.035206
0.035234
0.035275
0.035317
0.035353
0.035419
0.035455
0.035469
0.035505
0.035542
0.035567
0.035610
0.035648
0.035689
0.035729
0.035767
0.035794
0.035837
0.035876
0.035917
0.035951
0.035991
0.036020
0.036069
0.036096
0.036142
0.036178
0.036218
0.036255
0.036294
0.036330
0.036362
0.036404
0.036477
0.036547
0.036529
0.036548
0.036599
0.036627
0.036664
0.036699
0.036749
0.036900
0.036822
0.036839
0.036898
0.036932
0.036967
0.037007
0.037043
0.037080
0.037119
0.037151
0.037194
0.037224
0.037260
0.037313
0.037343
0.037375
0.037421
0.037500
0.038514
0.037568
0.037580
0.037611
0.037652
0.037666
0.037718
0.037766
0.037797
0.037827
0.037874
0.037915
0.037946
0.037988
0.038017
0.038067
0.038102
0.038140
0.038163
0.038213
0.038245
0.038286
0.038330
0.038344
0.038399
0.041999
0.038483
0.038514
0.038541
0.038591
0.038632
0.038665
0.038701
0.038749
0.038769
0.038930
0.038848
0.038881
0.038922
0.038959
0.038997
0.039032
0.039079
0.039115
0.039150
0.039181
0.039214
0.039256
0.039301
0.043342
0.039384
0.039458
0.039455
0.039484
0.039534
0.039570
0.039606
0.039634
0.039680
0.039711
0.039747
0.039794
0.039839
0.039858
0.039905
0.039943
0.039983
0.040016
0.040058
0.040093
0.040128
0.040163
0.040204
0.040234
0.040285
0.040325
0.040389
0.040393
0.040432
0.040474
0.040501
0.040539
0.040590
0.040618
0.040658
0.040689
0.040742
0.040864
0.040806
0.040839
0.040882
0.040918
0.040965
0.040990
0.041036
0.041075
0.041105
0.041147
0.041174
0.041216
0.041299
0.041813
0.041317
0.041363
0.041391
0.041441
0.041486
0.041522
0.041560
0.041591
0.041633
0.041669
0.041718
0.041736
0.041791
0.041822
0.041857
0.041899
0.041938
0.041977
0.042009
0.042047
0.042091
0.042113
0.042255
0.042367
0.042239
0.042281
0.042302
0.042355
0.042380
0.042443
0.042455
0.042500
0.042522
0.042589
0.042721
0.042656
0.042684
0.042725
0.042770
0.042804
0.042840
0.042877
0.042920
0.042945
0.042985
0.046513
0.043113
0.043105
0.043135
0.043177
0.043221
0.043260
0.043285
0.043335
0.043363
0.043406
0.043446
0.043480
0.043520
0.043558
0.043583
0.043628
0.043668
0.043693
0.043749
0.043780
0.043812
0.043851
0.043888
0.043972
0.043977
0.044008
0.044041
0.044078
0.044127
0.044156
0.044194
0.044232
0.044267
0.044303
0.044357
0.044482
0.044422
0.044460
0.044492
0.044532
0.044572
0.044612
0.044645
0.044685
0.044724
0.044791
0.044798
0.044838
0.044875
0.044914
0.044950
0.044984
0.045020
0.045066
0.045095
0.045133
0.045181
0.045202
0.045243
0.045288
0.045324
0.045352
0.045400
0.045437
0.045467
0.045511
0.045547
0.045634
0.045733
0.045664
0.045704
0.045736
0.045767
0.045810
0.045861
0.045880
0.045922
0.045962
0.046008
0.046032
0.046197
0.046105
0.046156
0.046187
0.046227
0.046264
0.046299
0.046332
0.046375
0.046454
0.046443
0.046494
0.046514
0.046570
0.046596
0.046647
0.046679
0.046716
0.046747
0.046788
0.046830
0.046863
0.046906
0.046945
0.046971
0.047016
0.047057
0.047095
0.047122
0.047159
0.050736
0.047256
0.047282
0.047303
0.047356
0.047396
0.047439
0.047463
0.047509
0.047543
0.047581
0.047625
0.047648
0.047785
0.047721
0.047761
0.047806
0.047844
0.047884
0.047921
0.051943
0.048021
0.048034
0.048073
0.048092
0.048149
0.048187
0.048216
0.048305
0.048291
0.048337
0.048379
0.048413
0.048450
0.048484
0.048528
0.048562
0.048597
0.048636
0.048670
0.048700
0.048753
0.048824
0.048825
0.048863
0.048902
0.048940
0.048976
0.049033
0.049057
0.049081
0.049124
0.049156
0.049194
0.049231
0.049369
0.049310
0.049350
0.049388
0.049429
0.049451
0.049492
0.049580
0.049573
0.049617
0.049646
0.049695
0.049729
0.049766
0.049803
0.049840
0.049876
0.049912
0.049954
0.049992
0.050025
0.050066
0.050101
0.050149
0.050175
0.050207
0.050254
0.050404
0.050497
0.050356
0.050386
0.050435
0.050477
0.050528
0.050547
0.050600
0.050631
0.050658
0.050713
0.050744
0.050775
0.050937
0.050861
0.050894
0.050921
0.050962
0.051016
0.054603
0.051084
0.051124
0.051155
0.051191
0.051236
0.051267
0.051304
0.051343
0.051383
0.051421
0.051446
0.051496
0.051525
0.051562
0.051603
0.051651
0.051674
0.051720
0.051806
0.051788
0.051828
0.052013
0.051901
0.051951
0.051987
0.052012
0.052060
0.052101
0.052137
0.052173
0.052208
0.052245
0.052284
0.052443
0.052357
0.052398
0.052428
0.052512
0.052510
0.052548
0.052569
0.052623
0.052664
0.052702
0.052734
0.052773
0.052811
0.052850
0.052882
0.052923
0.052965
0.053001
0.053039
0.053079
0.053113
0.053151
0.053230
0.053234
0.053265
0.053293
0.053344
0.053377
0.053424
0.053453
0.053480
0.053523
0.053564
0.053598
0.053638
0.053666
0.053720
0.053868
0.053797
0.053817
0.053873
0.053934
0.053944
0.053982
0.054014
0.054057
0.054101
0.054123
0.054170
0.054203
0.054249
0.054268
0.054325
0.054348
0.054383
0.054430
0.054464
0.054502
0.054543
0.058124
0.054620
0.054660
0.054696
0.054720
0.054765
0.054812
0.054845
0.054880
0.054922
0.054955
0.055001
0.055033
0.055074
0.055113
0.055142
0.055284
0.055225
0.059296
0.055297
0.055340
0.055371
0.055416
0.055440
0.055477
0.055521
0.055552
0.055590
0.055632
0.055675
0.055700
0.055739
0.058363
0.056491
0.056061
0.055906
0.055975
0.055983
0.056014
0.056033
0.056090
0.056136
0.056162
0.056207
0.056242
0.056265
0.056311
0.056350
0.056379
0.056410
0.056460
0.056494
0.056651
0.056571
0.056654
0.056661
0.056682
0.056727
0.056763
0.056804
0.056836
0.056867
0.056907
0.056951
0.056976
0.057031
0.057067
0.057098
0.057133
0.057167
0.057368
0.057254
0.057324
0.057331
0.057376
0.057410
0.057436
0.057481
0.057521
0.057548
0.057582
0.057631
0.057658
0.057703
0.057738
0.057782
0.057814
0.057858
0.058008
0.061501
0.057962
0.058015
0.058046
0.058088
0.058120
0.058156
0.058187
0.058227
0.058271
0.058299
0.058327
0.058381
0.058419
0.058443
0.058488
0.058534
0.058615
0.058615
0.058650
0.058672
0.058725
0.058758
0.058790
0.058831
0.058875
0.058909
0.058943
0.058988
0.059022
0.059059
0.059090
0.059118
0.059173
0.059332
0.059249
0.059281
0.059322
0.059364
0.059401
0.059435
0.059467
0.059511
0.059549
0.059590
0.059625
0.059650
0.059702
0.059736
0.059775
0.059812
0.059889
0.059879
0.059920
0.059965
0.060005
0.060045
0.060066
0.060111
0.060145
0.060193
0.060230
0.060264
0.060296
0.060340
0.060378
0.060404
0.060492
0.060582
0.060528
0.060568
0.060607
0.060641
0.060668
0.060714
0.060746
0.060786
0.060818
0.060859
0.060902
0.060937
0.060970
0.061006
0.061056
0.064681
0.061123
0.061165
0.061202
0.061249
0.061274
0.061310
0.061341
0.061389
0.061430
0.061460
0.061493
0.061534
0.061578
0.061620
0.061652
0.065782
0.061729
0.061882
0.061813
0.061835
0.061875
0.061918
0.061953
0.061988
0.062028
0.062061
0.062099
0.062139
0.062188
0.062222
0.062248
0.062334
0.062326
0.062406
0.062411
0.062438
0.062494
0.062523
0.062555
0.062589
0.062624
0.062664
0.062711
0.062743
0.062780
0.062823
0.062861
0.062926
0.062930
0.063077
0.063016
0.063049
0.063083
0.063120
0.063161
0.063192
0.063227
0.063274
0.063301
0.063343
0.063389
0.063427
0.063458
0.063535
0.063534
0.063559
0.063610
0.063653
0.063690
0.063717
0.063757
0.063791
0.063832
0.063877
0.063904
0.063947
0.063981
0.064026
0.067683
0.064111
0.064143
0.064181
0.064305
0.064246
0.064279
0.064327
0.064359
0.064396
0.064433
0.064468
0.064508
0.064549
0.064583
0.064621
0.064709
0.064696
0.064742
0.064774
0.064816
0.064851
0.064884
0.064927
0.064958
0.065002
0.065030
0.065073
0.065117
0.065146
0.065186
0.065271
0.065264
0.065298
0.065337
0.065480
0.065412
0.065450
0.065490
0.065527
0.065565
0.065601
0.065635
0.065684
0.065712
0.065750
0.065791
0.065931
0.065865
0.065909
0.065943
0.065986
0.066011
0.066053
0.066088
0.066129
0.066162
0.066205
0.066240
0.066287
0.066310
0.066366
0.066430
0.066435
0.066462
0.066509
0.066643
0.066583
0.066619
0.066659
0.066693
0.066733
0.066768
0.066797
0.066845
0.066879
0.066912
0.070516
0.066995
0.067031
0.067072
0.067119
0.067144
0.067182
0.067213
0.067254
0.067294
0.067333
0.067366
0.067393
0.067445
0.071515
0.067702
0.067654
0.067642
0.067686
0.067681
0.067803
0.067743
0.067790
0.067821
0.067855
0.067894
0.068005
0.067971
0.068059
0.068089
0.068090
0.068128
0.068166
0.068207
0.068334
0.068272
0.068357
0.068349
0.068388
0.068775
0.068459
0.068502
0.068534
0.068581
0.068646
0.068656
0.068691
0.068724
0.068773
0.068807
0.068918
0.068867
0.068916
0.068939
0.068986
0.069023
0.069060
0.069102
0.069178
0.069165
0.069220
0.069256
0.069294
0.069336
0.069363
0.069400
0.069442
0.069476
0.069516
0.069547
0.069588
0.069627
0.069667
0.073268
0.069748
0.069776
0.069814
0.069852
0.069888
0.070033
0.069967
0.069995
0.070041
0.070075
0.070118
0.070155
0.070189
0.070272
0.070269
0.070297
0.070343
0.070381
0.070417
0.070464
0.070494
0.070528
0.070559
0.070604
0.070643
0.070674
0.070718
0.070930
0.070797
0.070838
0.070869
0.070908
0.070939
0.070984
0.071119
0.071058
0.071092
0.071140
0.071173
0.071207
0.071245
0.071320
0.071321
0.071360
0.071398
0.071442
0.071470
0.071507
0.071546
0.071577
0.071622
0.071663
0.071691
0.071733
0.071772
0.071858
0.071848
0.071885
0.071928
0.071966
0.072000
0.072034
0.072073
0.072220
0.072155
0.072183
0.072224
0.072260
0.072302
0.075935
0.072381
0.072415
0.072558
0.072512
0.072574
0.072599
0.072604
0.072639
0.072673
0.072716
0.072746
0.072785
0.072833
0.073050
0.072928
0.072952
0.072992
0.073033
0.073062
0.073152
0.073139
0.073305
0.073224
0.073268
0.073287
0.073323
0.073409
0.074672
0.073451
0.073478
0.073523
0.073550
0.073591
0.073626
0.073664
0.073705
0.073740
0.073787
0.073811
0.073855
0.073931
0.073930
0.073966
0.074010
0.074051
0.074083
0.074115
0.074153
0.074322
0.074236
0.074268
0.074307
0.074338
0.074418
0.074427
0.074461
0.074490
0.074538
0.074562
0.074604
0.074646
0.074687
0.074715
0.074764
0.074802
0.074834
0.074877
0.075056
0.074956
0.074983
0.075028
0.075069
0.075100
0.075128
0.075174
0.075210
0.075370
0.075286
0.075324
0.075356
0.075768
0.075437
0.075600
0.075564
0.075564
0.075589
0.075625
0.075658
0.075699
0.075733
0.075769
0.075818
0.075851
0.075929
0.075929
0.075965
0.076003
0.076050
0.076077
0.076112
0.076152
0.076186
0.076224
0.076410
0.076299
0.076336
0.076419
0.076417
0.076452
0.076498
0.076528
0.076567
0.076606
0.076637
0.076676
0.076717
0.076749
0.076790
0.076826
0.076875
0.076949
0.076944
0.076975
0.077054
0.077060
0.077089
0.077130
0.077169
0.077210
0.077403
0.077388
0.077315
0.077502
0.077404
0.077430
0.077475
0.077509
0.077543
0.077579
0.077616
0.077655
0.077689
0.077725
0.077771
0.077808
0.077890
0.077996
0.077924
0.077974
0.078012
0.078030
0.078071
0.078101
0.078145
0.078178
0.078219
0.078382
0.078295
0.078376
0.078378
0.078408
0.078453
0.078484
0.078522
0.078555
0.078592
0.078633
0.078671
0.078707
0.078744
0.078783
0.078854
0.078870
0.078899
0.078942
0.078977
0.079011
0.079049
0.079085
0.079122
0.079164
0.079196
0.079352
0.079317
0.079305
0.079353
0.079378
0.079424
0.079460
0.079492
0.079535
0.079577
0.079604
0.079651
0.079685
0.079725
0.079921
0.079794
0.079835
0.079879
0.079915
0.079952
0.079982
0.080021
0.080065
0.080103
0.080141
0.080187
0.080288
0.080300
0.080293
0.080328
0.080369
0.080402
0.080442
0.080477
0.080516
0.080553
0.080607
0.080629
0.080660
0.080746
0.080755
0.080782
0.080820
0.080864
0.080896
0.080925
0.080965
0.081002
0.081041
0.081078
0.081113
0.081315
0.081198
0.081234
0.081266
0.081300
0.081344
0.081378
0.081421
0.081452
0.081494
0.081534
0.081573
0.081622
0.081672
0.081689
0.081721
0.081766
0.081794
0.081826
0.081871
0.081908
0.081951
0.081983
0.082022
0.082068
0.082365
0.082139
0.082171
0.082214
0.082245
0.082283
0.082326
0.082350
0.082395
0.082436
0.082475
0.082510
0.082725
0.082591
0.082627
0.082670
0.082698
0.082738
0.082767
0.082814
0.082845
0.082885
0.082925
0.082960
0.083042
0.083159
0.083069
0.083109
0.083194
0.083183
0.083225
0.083261
0.083300
0.083338
0.083374
0.083414
0.083498
0.083490
0.083527
0.083567
0.083601
0.083634
0.083680
0.083714
0.083747
0.083790
0.083831
0.083861
0.083952
0.084058
0.083977
0.084031
0.084051
0.084086
0.084126
0.084167
0.084200
0.084239
0.084276
0.084310
0.084504
0.084403
0.084431
0.084475
0.084504
0.084540
0.084577
0.084624
0.084650
0.084691
0.084728
0.084768
0.084846
0.084961
0.084888
0.084917
0.084959
0.084987
0.085028
0.085067
0.085104
0.085145
0.085180
0.085266
0.085252
0.085297
0.085333
0.085377
0.085407
0.085443
0.085478
0.085525
0.085558
0.085593
0.085635
0.085712
0.085718
0.085860
0.085786
0.085822
0.085854
0.085896
0.085932
0.085970
0.086008
0.086048
0.086087
0.086160
0.086162
0.086199
0.086252
0.086268
0.086306
0.086339
0.086387
0.086429
0.086455
0.086496
0.086687
0.086570
0.086619
0.086773
0.086681
0.086728
0.086765
0.086790
0.086836
0.086927
0.086916
0.086949
0.087153
0.087029
0.087190
0.087714
0.087820
0.087842
0.087428
0.087247
0.087281
0.087329
0.087359
0.087446
0.088631
0.087488
0.087521
0.087685
0.087591
0.087622
0.087659
0.087702
0.087741
0.087775
0.087827
0.087895
0.087889
0.087934
0.087979
0.088003
0.088048
0.088072
0.088111
0.088156
0.088186
0.088222
0.088318
0.088499
0.088349
0.088386
0.088539
0.088454
0.088491
0.088528
0.088574
0.088604
0.088645
0.088826
0.088720
0.088753
0.088798
0.088841
0.088866
0.088901
0.088941
0.088976
0.089021
0.089052
0.089108
0.089175
0.089176
0.089217
0.089242
0.089401
0.089320
0.089359
0.089392
0.089440
0.089468
0.089723
0.095581
0.093161
0.090491
0.090253
0.090721
0.091563
0.091091
0.090983
0.091033
0.091260
0.094143
0.091994
0.090901
0.090951
0.090968
0.091212
0.090940
0.090947
0.090736
0.090851
0.091233
0.091212
0.091242
0.091255
0.091274
0.091307
0.091354
0.091393
0.090950
0.091441
0.091268
0.091526
0.091687
0.092289
0.092058
0.092537
0.092122
0.092148
0.092328
0.091645
0.091815
0.092308
0.092350
0.092473
0.092623
0.091459
0.091402
0.091422
0.091462
0.091489
0.091683
0.092070
0.091585
0.091630
0.092231
0.093507
0.091834
0.092187
0.092221
0.092836
0.093103
0.093115
0.092968
0.092442
0.094023
0.094008
0.093573
0.093535
0.093631
0.093661
0.093674
0.093740
0.094042
0.094582
0.094347
0.094098
0.094442
0.093722
0.093481
0.094317
0.094126
0.094183
0.094671
0.094181
0.094337
0.094235
0.094478
0.093385
0.093772
0.093997
0.094039
0.094114
0.094088
0.093436
0.094142
0.093979
0.094246
0.094333
0.094358
0.094033
0.093706
0.093889
0.094289
0.094454
0.094491
0.094581
0.094626
0.094668
0.094247
0.094542
0.094800
0.094619
0.094889
0.094890
0.094945
0.094985
0.095017
0.095024
0.095101
0.095184
0.095137
0.095176
0.095227
0.095244
