0.003668
0.000912
0.000882
0.000889
0.000859
0.000902
0.000946
0.000964
0.000964
0.004611
0.000950
0.000889
0.000908
0.000921
0.000907
0.000943
0.000949
0.000952
0.000927
0.007188
0.001169
0.001081
0.001062
0.001081
0.001079
0.001079
0.001169
0.001149
0.001159
0.001188
0.001192
0.001182
0.001266
0.001246
0.001320
0.001308
0.001286
0.001379
0.001381
0.001426
0.007108
0.003610
0.001705
0.001543
0.001519
0.001604
0.001559
0.001621
0.001575
0.001604
0.001686
0.001654
0.005530
0.001801
0.001743
0.001764
0.001787
0.004691
0.001961
0.004012
0.001884
0.001871
0.005480
0.002049
0.003507
0.002183
0.002000
0.002057
0.002037
0.002027
0.002136
0.009736
0.002315
0.002152
0.002171
0.002273
0.002208
0.002261
0.002268
0.002412
0.002366
0.002328
0.005665
0.004613
0.002519
0.002435
0.002453
0.002409
0.002606
0.002522
0.002668
0.005900
0.004602
0.002624
0.002650
0.002632
0.002699
0.002619
0.005219
0.003169
0.002752
0.002836
0.002853
0.002781
0.002818
0.002898
0.009333
0.003060
0.002967
0.002985
0.002959
0.003606
0.003058
0.003000
0.006170
0.005298
0.003031
0.003142
0.003039
0.003104
0.003241
0.006433
0.005198
0.003315
0.003284
0.003248
0.003338
0.005720
0.007139
0.003512
0.003448
0.003418
0.003502
0.003402
0.009982
0.003844
0.003573
0.003538
0.003535
0.003652
0.003588
0.006615
0.005791
0.003656
0.003657
0.003717
0.003873
0.003883
0.004315
0.003855
0.003877
0.006671
0.004005
0.007493
0.004613
0.007233
0.017520
0.004883
0.007131
0.006230
0.008562
0.005238
0.007386
0.006996
0.009493
0.008144
0.008384
0.016305
0.005526
0.007673
0.006648
0.010259
0.004986
0.007575
0.007417
0.009876
0.006178
0.007833
0.007436
0.006719
0.006611
0.007814
0.009703
0.004698
0.008791
0.007775
0.005413
0.012573
0.008512
0.006791
0.006540
0.007313
0.011309
0.005950
0.012771
0.004961
0.008748
0.008423
0.012498
0.009603
0.004933
0.008418
0.005035
0.011975
0.005294
0.005290
0.005060
0.010999
0.005202
0.004938
0.005211
0.011504
0.005304
0.005040
0.005119
0.005298
0.008593
0.005507
0.008391
0.005373
0.008153
0.005650
0.007473
0.005643
0.005499
0.010013
0.005565
0.005540
0.007777
0.009030
0.005521
0.005620
0.008063
0.009452
0.005839
0.005751
0.005931
0.011864
0.006013
0.005790
0.005812
0.005881
0.010936
0.005936
0.005948
0.006080
0.006518
0.006052
0.006040
0.011973
0.005916
0.005918
0.006170
0.006054
0.010990
0.006032
0.006259
0.006282
0.012435
0.006490
0.008913
0.009620
0.006206
0.008659
0.006228
0.009936
0.006544
0.006388
0.006630
0.009295
0.008516
0.006946
0.006556
0.011416
0.006683
0.006669
0.012131
0.006745
0.006643
0.009372
0.010330
0.006782
0.006846
0.011480
0.007024
0.006807
0.009467
0.010465
0.007019
0.006877
0.012882
0.006779
0.007017
0.007223
0.013222
0.006936
0.007123
0.009734
0.009106
0.007166
0.007277
0.009100
0.007225
0.009338
0.010810
0.007239
0.009696
0.010451
0.007350
0.007300
0.012445
0.007620
0.007439
0.013152
0.007568
0.007383
0.010137
0.010825
0.007524
0.007695
0.012430
0.007694
0.007868
0.013659
0.007867
0.007758
0.013459
0.007835
0.007779
0.007841
0.012939
0.007720
0.010656
0.011373
0.007667
0.010399
0.010811
0.007950
0.007623
0.015483
0.008117
0.008002
0.012680
0.008045
0.008123
0.014444
0.008396
0.018730
0.008180
0.010559
0.011705
0.008363
0.008132
0.011460
0.008335
0.011642
0.011453
0.010310
0.008704
0.013992
0.008556
0.011179
0.011950
0.008779
0.008609
0.014222
0.008592
0.011368
0.010522
0.008538
0.013769
0.008715
0.011207
0.012084
0.008681
0.011429
0.012196
0.008689
0.014901
0.008831
0.008971
0.015857
0.008925
0.009132
0.011675
0.010827
0.009190
0.014159
0.008998
0.014874
0.008866
0.012174
0.012514
0.009162
0.014971
0.009078
0.009249
0.013970
0.009160
0.009877
0.015201
0.012068
0.012369
0.009526
0.012083
0.012538
0.009671
0.012494
0.011448
0.009379
0.014730
0.009580
0.014847
0.009767
0.011963
0.013311
0.009779
0.015429
0.009907
0.009854
0.014401
0.009619
0.009922
0.015317
0.012491
0.012928
0.012502
0.013242
0.009910
0.009892
0.012902
0.011772
0.009943
0.014967
0.012463
0.013311
0.009833
0.015977
0.010451
0.010093
0.016255
0.010569
0.014980
0.010358
0.016208
0.010534
0.010267
0.016961
0.010636
0.015821
0.010366
0.016762
0.010300
0.010444
0.013095
0.012492
0.013440
0.012497
0.016387
0.010747
0.012900
0.014116
0.010709
0.016344
0.010986
0.016822
0.010784
0.010833
0.010824
0.012766
0.015625
0.010958
0.016234
0.010725
0.016681
0.011129
0.013633
0.014307
0.017378
0.011295
0.010964
0.016943
0.011270
0.015681
0.010961
0.016959
0.011053
0.017204
0.011237
0.013946
0.013050
0.011415
0.017225
0.011387
0.017323
0.011416
0.015415
0.011301
0.018172
0.011523
0.016147
0.011659
0.017407
0.011707
0.017168
0.011820
0.017532
0.011572
0.011701
0.016677
0.017758
0.011977
0.017569
0.011784
0.012090
0.016615
0.012033
0.017851
0.011899
0.017882
0.012012
0.016373
0.011935
0.018234
0.011917
0.017640
0.012213
0.016483
0.012306
0.017835
0.012159
0.018370
0.013218
0.016789
0.012503
0.018031
0.012387
0.017913
0.012256
0.017027
0.012449
0.018325
0.015181
0.015711
0.012823
0.018695
0.012702
0.017227
0.012863
0.018018
0.015211
0.015424
0.014725
0.015971
0.012872
0.017306
0.012714
0.017563
0.019178
0.012913
0.018647
0.012652
0.018850
0.013958
0.019070
0.014293
0.018663
0.013197
0.018981
0.013176
0.017744
0.020467
0.015981
0.016360
0.015586
0.016110
0.013362
0.015939
0.014942
0.018510
0.015828
0.016698
0.018815
0.013450
0.018768
0.013669
0.019646
0.013165
0.016577
0.015891
0.018239
0.013431
0.019484
0.019754
0.013452
0.018651
0.013547
0.019160
0.016687
0.016864
0.015987
0.017158
0.016572
0.015779
0.016833
0.015722
0.020064
0.014010
0.019631
0.014138
0.016057
0.019548
0.017187
0.016854
0.016137
0.017296
0.014173
0.018925
0.016694
0.015794
0.021203
0.014518
0.019986
0.014255
0.018535
0.020252
0.014201
0.019999
0.014272
0.020166
0.020425
0.014370
0.020327
0.014597
0.019119
0.021312
0.017365
0.017514
0.016856
0.017709
0.014653
0.019203
0.017578
0.016511
0.020493
0.017477
0.018440
0.019559
0.014927
0.020980
0.017285
0.018210
0.019702
0.014857
0.021102
0.017767
0.017990
0.019520
0.014894
0.021237
0.017600
0.018508
0.020985
0.015111
0.020933
0.015045
0.019779
0.017869
0.017236
0.020324
0.021090
0.017636
0.019534
0.015358
0.020047
0.018396
0.017571
0.020993
0.021257
0.015465
0.020271
0.021463
0.015779
0.021110
0.015844
0.019912
0.021244
0.018403
0.018438
0.021066
0.015581
0.018121
0.017630
0.021734
0.021365
0.015729
0.021985
0.020268
0.016276
0.021684
0.021249
0.016073
0.021614
0.022187
0.015968
0.018944
0.017737
0.020762
0.021739
0.016089
0.022229
0.020731
0.016110
0.021460
0.021942
0.018932
0.019262
0.019146
0.017992
0.021099
0.022055
0.016296
0.021581
0.016230
0.022880
0.020998
0.016601
0.022174
0.022438
0.022282
0.016495
0.019408
0.018284
0.022123
0.022197
0.022380
0.016685
0.021378
0.022212
0.019485
0.019602
0.022723
0.016786
0.021596
0.019476
0.018695
0.022576
0.022398
0.017349
0.022959
0.022126
0.016868
0.022706
0.022712
0.019078
0.020318
0.023083
0.017172
0.022949
0.023245
0.020130
0.019155
0.021942
0.022963
0.017361
0.023061
0.022087
0.017625
0.025170
0.020842
0.022847
0.017334
0.021971
0.020358
0.021395
0.020754
0.023044
0.017422
0.022573
0.023687
0.023477
0.017788
0.022282
0.023520
0.020556
0.021141
0.022240
0.023662
0.017675
0.024208
0.022923
0.020714
0.021568
0.023390
0.022632
0.018224
0.023703
0.023329
0.018098
0.023037
0.024096
0.023627
0.018346
0.023108
0.023902
0.023743
0.017987
0.023666
0.024442
0.020736
0.021600
0.023200
0.024196
0.021000
0.020985
0.023785
0.024299
0.018528
0.024655
0.024115
0.024464
0.018505
0.024401
0.023246
0.024209
0.020451
0.024976
0.022885
0.024778
0.018960
0.026507
0.023315
0.025785
0.018707
0.018993
0.021996
0.023373
0.020866
0.024611
0.023424
0.024521
0.024800
0.021840
0.022249
0.024803
0.024686
0.025071
0.021491
0.023947
0.023932
0.025192
0.019085
0.025482
0.023712
0.025495
0.025131
0.019319
0.023715
0.026407
0.025424
0.019314
0.024372
0.024827
0.026250
0.022289
0.021926
0.024146
0.024703
0.030980
0.029658
0.032890
0.027094
0.022483
0.021907
0.025278
0.026344
0.026073
0.022098
0.021540
0.024429
0.025529
0.025979
0.024649
0.022523
0.023257
0.025549
0.024498
0.025586
0.022616
0.023481
0.025307
0.026024
0.025914
0.020236
0.025294
0.025450
0.026896
0.025748
0.026513
0.020543
0.024893
0.024800
0.025805
0.026077
0.020442
0.025229
0.028312
0.025938
0.026108
0.026307
0.020080
0.025514
0.025101
0.026498
0.026504
0.023303
0.022616
0.028917
0.023401
0.025485
0.026426
0.026834
0.020712
0.024980
0.026735
0.026505
0.026422
0.020956
0.025113
0.026164
0.026554
0.026600
0.026983
0.020678
0.023268
0.027384
0.026273
0.027937
0.024024
0.026276
0.027875
0.024016
0.024566
0.025543
0.027080
0.026913
0.026379
0.024042
0.024598
0.027282
0.027146
0.026208
0.026524
0.028314
0.023431
0.025042
0.025631
0.026319
0.026925
0.027258
0.026595
0.024100
0.024344
0.027335
0.026044
0.027560
0.027240
0.026828
0.027389
0.024710
0.025020
0.026106
0.029055
0.024007
0.029190
0.027687
0.027490
0.021904
0.026693
0.027405
0.027204
0.026429
0.027871
0.028502
0.027749
0.028342
0.022272
0.027125
0.026607
0.027978
0.027814
0.026882
0.028267
0.027949
0.025126
0.024241
0.030041
0.028458
0.025198
0.026793
0.027318
0.027950
0.028595
0.028441
0.023085
0.026874
0.028422
0.028265
0.026725
0.028843
0.028424
0.027479
0.028443
0.028736
0.027698
0.028860
0.022830
0.023198
0.027155
0.032489
0.028538
0.025399
0.027820
0.027491
0.028593
0.028506
0.029506
0.029123
0.026159
0.024934
0.030027
0.028604
0.026095
0.027984
0.028848
0.028779
0.028936
0.027867
0.028527
0.029437
0.028766
0.027866
0.030718
0.023529
0.028026
0.027750
0.028082
0.028810
0.029169
0.029280
0.027977
0.029651
0.029662
0.028114
0.029206
0.029087
0.028412
0.029230
0.029717
0.023932
0.025598
0.032102
0.023441
0.028142
0.028309
0.029384
0.027746
0.029866
0.030469
0.028460
0.029713
0.029718
0.029351
0.026682
0.030583
0.029929
0.029352
0.030277
0.028503
0.029616
0.030016
0.024212
0.032221
0.030163
0.024402
0.028788
0.032309
0.029792
0.027923
0.028713
0.029309
0.029772
0.030311
0.030046
0.029233
0.032492
0.029484
0.027409
0.028989
0.029336
0.029794
0.030680
0.030327
0.029487
0.030535
0.030658
0.030169
0.030511
0.027590
0.032607
0.024735
0.035590
0.031307
0.024516
0.027740
0.030353
0.030530
0.030367
0.030813
0.024932
0.032461
0.034810
0.025193
0.030414
0.030394
0.030101
0.030473
0.030675
0.031097
0.028494
0.032739
0.030820
0.028483
0.032833
0.030873
0.028398
0.032628
0.034324
0.025214
0.030384
0.034380
0.025317
0.029898
0.030395
0.030490
0.030611
0.034281
0.026264
0.030879
0.028891
0.031209
0.030867
0.031215
0.031230
0.030679
0.031977
0.032600
0.031643
0.031572
0.028384
0.033631
0.031196
0.031488
0.031500
0.031784
0.030871
0.030605
0.031384
0.031648
0.031137
0.031767
0.031846
0.034716
0.029269
0.030770
0.035510
0.025828
0.030891
0.028925
0.031961
0.031386
0.032302
0.032070
0.031017
0.032266
0.034054
0.031404
0.033974
0.032275
0.031539
0.032137
0.032351
0.033832
0.035434
0.031970
0.029944
0.032114
0.032936
0.032293
0.032373
0.032419
0.032619
0.031079
0.031676
0.032087
0.032461
0.034837
0.026997
0.030889
0.034034
0.032831
0.032881
0.033345
0.031798
0.031356
0.032796
0.034035
0.032587
0.036010
0.033041
0.033548
0.034157
0.033389
0.034303
0.032930
0.032636
0.033215
0.037563
0.032461
0.032644
0.032623
0.029913
0.033315
0.034228
0.033344
0.033533
0.031422
0.035749
0.032563
0.030656
0.031912
0.037865
0.030252
0.033137
0.033955
0.033779
0.033834
0.032370
0.038282
0.033356
0.030923
0.033316
0.033926
0.033497
0.033436
0.032387
0.036052
0.037791
0.030833
0.033560
0.033216
0.034088
0.033715
0.033569
0.032239
0.032546
0.035984
0.030575
0.035921
0.034254
0.034178
0.033963
0.033625
0.034536
0.032896
0.036379
0.033458
0.034327
0.033972
0.033508
0.036610
0.031514
0.036288
0.036176
0.033929
0.033636
0.033635
0.034031
0.031853
0.033839
0.036921
0.036283
0.034705
0.033602
0.033737
0.033876
0.032350
0.034152
0.036872
0.034194
0.034190
0.034337
0.034528
0.033400
0.043262
0.034229
0.031881
0.034233
0.034700
0.034937
0.036720
0.037401
0.034583
0.034667
0.034897
0.034716
0.032031
0.035201
0.036654
0.036568
0.034106
0.034541
0.033994
0.034610
0.034625
0.035138
0.037495
0.032451
0.034867
0.035238
0.035676
0.039601
0.035196
0.034428
0.035505
0.034895
0.034971
0.037177
0.036265
0.035267
0.035377
0.035642
0.035415
0.034770
0.037736
0.032823
0.035654
0.034984
0.036045
0.035330
0.035734
0.037012
0.035953
0.035036
0.035120
0.036955
0.035760
0.035498
0.036147
0.035689
0.034968
0.040585
0.037287
0.035586
0.035388
0.035403
0.036374
0.039218
0.035995
0.035664
0.036786
0.036723
0.037996
0.035628
0.035517
0.035887
0.036575
0.038367
0.035485
0.035767
0.035962
0.036728
0.038167
0.036067
0.035922
0.036435
0.037012
0.038078
0.036077
0.036095
0.036271
0.037158
0.039223
0.035998
0.036285
0.040263
0.036791
0.036765
0.035722
0.035793
0.036371
0.038560
0.036073
0.037952
0.036572
0.038451
0.036018
0.035993
0.036237
0.037035
0.038166
0.036260
0.037029
0.036355
0.036509
0.038509
0.036120
0.036358
0.036553
0.036857
0.038043
0.036818
0.036509
0.039490
0.037849
0.036327
0.036751
0.036252
0.036732
0.039139
0.036957
0.037622
0.039397
0.036161
0.036630
0.038320
0.036409
0.037407
0.038331
0.036978
0.037789
0.036968
0.037303
0.037602
0.047083
0.037599
0.036808
0.036743
0.036651
0.037769
0.039112
0.037553
0.037354
0.040111
0.037172
0.038538
0.037348
0.037155
0.037474
0.037103
0.037434
0.037443
0.039374
0.037159
0.037584
0.037259
0.042736
0.037936
0.037632
0.040819
0.037541
0.037453
0.037363
0.039077
0.037652
0.037724
0.038257
0.039572
0.037237
0.038225
0.037876
0.040213
0.038090
0.037779
0.037869
0.039444
0.037950
0.043313
0.037724
0.038414
0.038569
0.038520
0.039643
0.038134
0.038356
0.037852
0.040193
0.039578
0.042162
0.038907
0.037973
0.038802
0.035665
0.039842
0.038577
0.038903
0.038435
0.038919
0.039398
0.040751
0.039898
0.038315
0.038653
0.039316
0.040994
0.038083
0.041945
0.038576
0.038857
0.038475
0.041282
0.038238
0.038669
0.039322
0.040470
0.038877
0.038902
0.041204
0.038808
0.039691
0.040190
0.039321
0.041817
0.038705
0.038688
0.039363
0.039477
0.041356
0.039417
0.039636
0.041210
0.039461
0.039674
0.040789
0.039463
0.039354
0.040890
0.039493
0.039567
0.040379
0.039911
0.039064
0.040936
0.039613
0.039351
0.040933
0.039134
0.040756
0.041015
0.039511
0.039970
0.041000
0.039932
0.039713
0.041299
0.040222
0.040170
0.040762
0.039553
0.039740
0.041943
0.039540
0.040069
0.041846
0.039691
0.040380
0.041608
0.040903
0.040234
0.041914
0.039838
0.041482
0.041024
0.039824
0.040361
0.041890
0.040674
0.040791
0.041436
0.040091
0.040802
0.043091
0.040998
0.040311
0.041850
0.040410
0.040797
0.041945
0.040578
0.041232
0.041386
0.040274
0.041301
0.042555
0.040783
0.040882
0.042454
0.041149
0.041314
0.040286
0.041316
0.040552
0.042326
0.040789
0.040540
0.042476
0.040270
0.041093
0.041572
0.040994
0.041551
0.041651
0.042519
0.043484
0.039801
0.041389
0.042325
0.040867
0.041469
0.046846
0.041838
0.043060
0.041221
0.041525
0.042671
0.041433
0.040934
0.041787
0.041574
0.042183
0.042205
0.041702
0.041247
0.041852
0.041846
0.041383
0.043074
0.041971
0.041581
0.042420
0.041589
0.041710
0.041462
0.042042
0.043740
0.041248
0.041762
0.043156
0.041481
0.042742
0.041967
0.041876
0.042391
0.043171
0.042200
0.042228
0.040809
0.042057
0.042110
0.042412
0.042466
0.042211
0.043951
0.041781
0.042063
0.043375
0.042313
0.042836
0.042761
0.042177
0.044831
0.041879
0.042155
0.042604
0.042686
0.042924
0.042931
0.042374
0.043035
0.043253
0.041805
0.043396
0.042818
0.042727
0.045460
0.042102
0.043042
0.043366
0.042447
0.042872
0.044149
0.042838
0.039946
0.042987
0.042642
0.042976
0.044073
0.042717
0.045734
0.042998
0.042958
0.042847
0.040111
0.043992
0.043087
0.046055
0.043703
0.045035
0.043775
0.043651
0.043701
0.048050
0.042056
0.042951
0.045344
0.043671
0.044762
0.043831
0.043358
0.044118
0.043105
0.045800
0.043483
0.045271
0.043186
0.043798
0.044586
0.044089
0.044556
0.044325
0.044978
0.043338
0.044175
0.044201
0.047027
0.043698
0.043703
0.044189
0.044209
0.046578
0.043339
0.044096
0.045772
0.044254
0.048193
0.044362
0.044542
0.044120
0.045044
0.043421
0.044909
0.046220
0.042787
0.044353
0.044394
0.044962
0.045188
0.044521
0.047861
0.043773
0.047377
0.045146
0.044797
0.044865
0.044385
0.045270
0.044816
0.045112
0.044830
0.045404
0.045567
0.045099
0.044073
0.045481
0.044457
0.045068
0.044709
0.044621
0.044313
0.043922
0.047262
0.044202
0.045390
0.045627
0.044575
0.045886
0.044755
0.045189
0.045436
0.045527
0.045511
0.046378
0.047647
0.043963
0.045060
0.045561
0.046343
0.045952
0.045588
0.045539
0.045103
0.046006
0.044857
0.046030
0.045050
0.045427
0.045530
0.045735
0.045283
0.047236
0.045194
0.046130
0.045301
0.045824
0.046145
0.046029
0.045056
0.046826
0.047534
0.044812
0.046255
0.046894
0.046002
0.047355
0.046061
0.046545
0.045780
0.045797
0.045415
0.046888
0.045748
0.046436
0.045796
0.046782
0.046152
0.046128
0.046032
0.046748
0.046095
0.047375
0.047952
0.046494
0.046180
0.047026
0.045872
0.046358
0.046327
0.046505
0.047144
0.047413
0.046308
0.046900
0.046307
0.047454
0.046596
0.046390
0.048840
0.047348
0.046707
0.047267
0.046517
0.047277
0.046333
0.047432
0.046679
0.047273
0.046037
0.047381
0.046792
0.046738
0.046591
0.047104
0.046710
0.046831
0.048286
0.047792
0.046786
0.047623
0.046665
0.046938
0.046469
0.047083
0.049150
0.046176
0.046236
0.048259
0.047085
0.047802
0.046965
0.047827
0.047448
0.048275
0.046907
0.047245
0.046911
0.045923
0.046592
0.048624
0.047633
0.048249
0.047614
0.047435
0.048025
0.048439
0.047500
0.047987
0.047354
0.047359
0.047662
0.048252
0.047940
0.047904
0.047923
0.049013
0.047610
0.050577
0.047467
0.048830
0.047542
0.047970
0.047271
0.048052
0.047955
0.048621
0.047898
0.048003
0.047955
0.048393
0.047358
0.048516
0.048618
0.048839
0.050409
0.046787
0.047377
0.048418
0.047707
0.048796
0.048118
0.048922
0.049212
0.048819
0.047601
0.049644
0.051257
0.047575
0.048141
0.048220
0.049259
0.049002
0.048304
0.048328
0.048935
0.048513
0.048121
0.048716
0.050728
0.049144
0.049039
0.049167
0.048521
0.049144
0.048547
0.049027
0.048318
0.051401
0.048660
0.048965
0.049004
0.048173
0.048532
0.048949
0.048572
0.050194
0.048311
0.049567
0.048603
0.049685
0.048458
0.049918
0.048508
0.050581
0.049050
0.049642
0.048618
0.049887
0.049528
0.050279
0.049294
0.050897
0.048987
0.050034
0.048537
0.049778
0.051827
0.049039
0.049510
0.051259
0.049922
0.049164
0.050217
0.049647
0.050597
0.049724
0.050167
0.048982
0.048806
0.049440
0.051203
0.049733
0.049859
0.049390
0.050377
0.050225
0.049562
0.049821
0.052539
0.049281
0.048665
0.050399
0.050104
0.050844
0.051039
0.049829
0.049990
0.050063
0.050728
0.049826
0.050692
0.050021
0.054447
0.049208
0.050349
0.050288
0.050240
0.050218
0.050284
0.051644
0.050354
0.050428
0.050843
0.050574
0.050474
0.051267
0.052324
0.051491
0.050131
0.050863
0.049873
0.050383
0.050798
0.050041
0.050295
0.050662
0.049634
0.051644
0.050807
0.050885
0.050617
0.050818
0.050991
0.051039
0.051199
0.051125
0.050987
0.051715
0.050173
0.051236
0.051679
0.051425
0.050737
0.051945
0.051299
0.051501
0.050687
0.051826
0.052394
0.052526
0.050621
0.052012
0.050756
0.051730
0.051009
0.052257
0.050936
0.051691
0.051210
0.052031
0.053505
0.050197
0.051679
0.051427
0.051939
0.050549
0.051900
0.051225
0.052310
0.051425
0.051682
0.051301
0.050570
0.051637
0.051572
0.051374
0.052347
0.051259
0.052345
0.053033
0.053091
0.051258
0.051934
0.054074
0.050986
0.053839
0.052907
0.051771
0.051863
0.052711
0.051830
0.052312
0.051655
0.053100
0.051824
0.051551
0.053561
0.051831
0.053483
0.052018
0.052826
0.052621
0.053170
0.052065
0.053016
0.052332
0.053077
0.052306
0.053376
0.052695
0.052292
0.052525
0.053182
0.052507
0.054149
0.052594
0.052963
0.055296
0.052423
0.052074
0.053389
0.052807
0.053198
0.053142
0.061345
0.051951
0.051736
0.053151
0.055044
0.053050
0.052665
0.054375
0.052941
0.052643
0.052819
0.053305
0.052371
0.053470
0.052827
0.053831
0.053007
0.053911
0.053007
0.053612
0.053115
0.053713
0.054237
0.053886
0.052636
0.053858
0.053108
0.054170
0.053511
0.053930
0.053961
0.053842
0.053071
0.053600
0.053243
0.053651
0.053421
0.053789
0.055800
0.052203
0.053591
0.053019
0.054701
0.053647
0.055168
0.053571
0.054071
0.053689
0.055657
0.053403
0.055434
0.054007
0.055582
0.053380
0.054081
0.054626
0.054587
0.054485
0.054269
0.054355
0.055014
0.056303
0.052553
0.054158
0.053755
0.055017
0.055086
0.054181
0.053850
0.054830
0.053880
0.054932
0.056274
0.053371
0.056420
0.054505
0.054858
0.054758
0.055091
0.054420
0.054652
0.054101
0.056297
0.057126
0.053961
0.055501
0.054340
0.055387
0.055204
0.055287
0.055161
0.055900
0.055042
0.055414
0.054512
0.056083
0.054463
0.056026
0.054746
0.055785
0.054789
0.055455
0.054843
0.055421
0.056217
0.054930
0.054886
0.056047
0.055352
0.056529
0.055186
0.055825
0.054789
0.056051
0.055313
0.056017
0.055158
0.056558
0.050214
0.055563
0.055113
0.056118
0.054947
0.056139
0.055122
0.056132
0.057193
0.054853
0.056466
0.050108
0.055429
0.056102
0.056557
0.055685
0.056482
0.055851
0.056197
0.056219
0.061245
0.055090
0.055583
0.056169
0.056129
0.056290
0.056749
0.056626
0.059633
0.055131
0.055826
0.057338
0.056240
0.055432
0.056736
0.058158
0.055671
0.056259
0.056517
0.051913
0.056603
0.057188
0.057615
0.060229
0.055245
0.064271
0.067137
0.056181
0.055972
0.058300
0.057901
0.057453
0.056037
0.057257
0.057926
0.057913
0.057460
0.057301
0.057670
0.056704
0.056659
0.057981
0.058355
0.057242
0.057566
0.057787
0.057670
0.060157
0.055762
0.057247
0.059937
0.055844
0.056536
0.057471
0.057565
0.058365
0.057556
0.057442
0.060222
0.056317
0.058077
0.057613
0.058601
0.059012
0.057788
0.058197
0.057522
0.057334
0.057913
0.057808
0.057861
0.057709
0.058786
0.058049
0.057943
0.058386
0.058199
0.058100
0.058046
0.056939
0.057328
0.060667
0.056992
0.058603
0.058348
0.058441
0.057905
0.058554
0.058247
0.058841
0.057971
0.061263
0.058820
0.057706
0.058282
0.058822
0.059091
0.058431
0.058000
0.058048
0.058196
0.058331
0.061012
0.058692
0.058577
0.058154
0.058184
0.058539
0.058120
0.058763
0.058665
0.058767
0.061153
0.057818
0.059433
0.058803
0.058118
0.059074
0.058481
0.059201
0.059335
0.059008
0.059214
0.058484
0.059541
0.059544
0.059605
0.059317
0.059078
0.059235
0.060110
0.059087
0.058972
0.057749
0.059445
0.060369
0.059172
0.060447
0.059579
0.059412
0.060361
0.059506
0.060076
0.059074
0.059561
0.059580
0.059329
0.059686
0.059674
0.059382
0.059774
0.059462
0.059206
0.062362
0.058058
0.059314
0.060171
0.059875
0.060765
0.059135
0.059904
0.059958
0.059684
0.059672
0.060453
0.059720
0.059746
0.059604
0.060235
0.059625
0.059640
0.059764
0.060163
0.058348
0.059605
0.060351
0.060856
0.060704
0.060588
0.060780
0.060258
0.059966
0.060339
0.059993
0.059632
0.060676
0.060296
0.060564
0.060613
0.060182
0.060300
0.060703
0.063205
0.060300
0.061028
0.060675
0.060797
0.061197
0.060606
0.063646
